#EXPORTTYPE:DATA SINGLE
#FTYPE:ANSI
#DECIMAL:POINT
#SEPARATOR:SEMICOLON
#MTYPE:DSC
#PROJECT:
#CORR. FILE:005925_bline_Al2O3_900_7.5_N2_20_air_20.ngb-bs1
#TEMPCAL:TCALZERO.TCX
#SENSITIVITY:SENSZERO.EXX
#LABORATORY:13
#OPERATOR:
#REMARK:
#SAMPLE:4
#SAMPLE MASS /mg:7.42
#MATERIAL:
#REFERENCE:
#REFERENCE MASS /mg:0
#TYPE OF CRUCIBLE:DSC/TG pan Al2O3
#SAMPLE CRUCIBLE MASS /mg:0
#REFERENCE CRUCIBLE MASS /mg:0
#DSC RANGE /V:5000
#TG RANGE /mg:5000
#TAU-R:---
#CORR. CODE:020
#EXO:+1
#RANGE:35C/7,5(K/min)/920�C
#SEGMENT:S1/1
#SEG. 1:35�C/7,5(K/min)/920�C

##Temp./�C;Time/min;DSC/(uV/mg);Sensit./(uV/mW)
34.14896;0.5;0.0;1.0
34.59436;1.0;0.0;1.0
35.68375;1.5;0.0;1.0
37.32905;2.0;0.0;1.0
39.42311;2.5;0.0;1.0
41.82416;3.0;0.0;1.0
44.48642;3.5;0.0;1.0
47.36371;4.0;0.0;1.0
50.40853;4.5;0.0;1.0
53.59856;5.0;0.0;1.0
56.91062;5.5;0.0;1.0
60.33416;6.0;0.0;1.0
63.83709;6.5;0.0;1.0
67.40722;7.0;0.0;1.0
71.01816;7.5;0.0;1.0
74.673;8.0;0.0;1.0
78.36113;8.5;0.0;1.0
82.0722;9.0;0.0;1.0
85.82376;9.5;0.0;1.0
89.60155;10.0;0.0;1.0
93.40258;10.5;0.0;1.0
97.22127;11.0;0.0;1.0
101.0636;11.5;0.0;1.0
104.91793;12.0;0.0;1.0
108.78251;12.5;0.0;1.0
112.64249;13.0;0.0;1.0
116.50784;13.5;0.0;1.0
120.36778;14.0;0.0;1.0
124.22933;14.5;0.0;1.0
128.09969;15.0;0.0;1.0
131.96873;15.5;0.0;1.0
135.85067;16.0;0.0;1.0
139.73913;16.5;0.0;1.0
143.63669;17.0;0.0;1.0
147.54049;17.5;0.0;1.0
151.44664;18.0;0.0;1.0
155.35118;18.5;0.0;1.0
159.25395;19.0;0.0;1.0
163.1588;19.5;0.0;1.0
167.05856;20.0;0.0;1.0
170.9538;20.5;0.0;1.0
174.8622;21.0;0.0;1.0
178.75347;21.5;0.0;1.0
182.6578;22.0;0.0;1.0
186.56078;22.5;0.0;1.0
190.46731;23.0;0.0;1.0
194.36991;23.5;0.0;1.0
198.27002;24.0;0.0;1.0
202.16893;24.5;0.0;1.0
206.06338;25.0;0.0;1.0
209.95464;25.5;0.0;1.0
213.84576;26.0;0.0;1.0
217.73087;26.5;0.0;1.0
221.61424;27.0;0.0;1.0
225.49647;27.5;0.0;1.0
229.38404;28.0;0.0;1.0
233.26766;28.5;0.0;1.0
237.15058;29.0;0.0;1.0
241.03071;29.5;0.0;1.0
244.90976;30.0;0.0;1.0
248.78506;30.5;0.0;1.0
252.66656;31.0;0.0;1.0
256.53507;31.5;0.0;1.0
260.40607;32.0;0.0;1.0
264.2732;32.5;0.0;1.0
268.14446;33.0;0.0;1.0
272.01558;33.5;0.0;1.0
275.88229;34.0;0.0;1.0
279.74731;34.5;0.0;1.0
283.61204;35.0;0.0;1.0
287.47454;35.5;0.0;1.0
291.33366;36.0;0.0;1.0
295.18742;36.5;0.0;1.0
299.03844;37.0;0.0;1.0
302.89008;37.5;0.0;1.0
306.74185;38.0;0.0;1.0
310.59553;38.5;0.0;1.0
314.44818;39.0;0.0;1.0
318.30158;39.5;0.0;1.0
322.14887;40.0;0.0;1.0
325.99403;40.5;0.0;1.0
329.83591;41.0;0.0;1.0
333.67614;41.5;0.0;1.0
337.51342;42.0;0.0;1.0
341.34351;42.5;0.0;1.0
345.16604;43.0;1.309234e-318;1.0
348.9924;43.5;1.463551586368e-311;1.0
352.81507;44.0;1.342800733862793e-304;1.0
356.63256;44.5;1.0055158902492608e-297;1.0
360.4502;45.0;6.284834914220621e-291;1.0
364.26445;45.5;3.2323986961548983e-284;1.0
368.07553;46.0;1.3698466887368136e-277;1.0
371.88493;46.5;4.81366431978571e-271;1.0
375.69218;47.0;1.4003837346759784e-264;1.0
379.50536;47.5;3.480061060476879e-258;1.0
383.31778;48.0;7.196400009501202e-252;1.0
387.12696;48.5;1.2270086619702757e-245;1.0
390.93715;49.0;1.7530957436976442e-239;1.0
394.73795;49.5;2.0204483389022267e-233;1.0
398.53796;50.0;1.9400072435303373e-227;1.0
402.33673;50.5;1.5496246583046952e-221;1.0
406.13316;51.0;1.0259313651020128e-215;1.0
409.93214;51.5;5.727562893795813e-210;1.0
413.73369;52.0;2.6955898650960963e-204;1.0
417.52987;52.5;1.040898220300819e-198;1.0
421.32731;53.0;3.373781602250999e-193;1.0
425.12158;53.5;9.04503008447144e-188;1.0
428.90907;54.0;1.983483614793748e-182;1.0
432.69609;54.5;3.633236176187e-177;1.0
436.48354;55.0;5.575155969136738e-172;1.0
440.27147;55.5;7.167361714912145e-167;1.0
444.06617;56.0;7.867951958022259e-162;1.0
447.85389;56.5;7.071417340747008e-157;1.0
451.63731;57.0;5.249826203654647e-152;1.0
455.42415;57.5;3.294143555391013e-147;1.0
459.21182;58.0;1.733355116325744e-142;1.0
462.99486;58.5;7.531664590800097e-138;1.0
466.78031;59.0;2.757096289636155e-133;1.0
470.55442;59.5;8.189694626677744e-129;1.0
474.32873;60.0;2.0387115985591167e-124;1.0
478.10582;60.5;4.281836143395339e-120;1.0
481.87747;61.0;7.426177948808555e-116;1.0
485.65156;61.5;1.0857008695316651e-111;1.0
489.42355;62.0;1.3226470745970834e-107;1.0
493.19251;62.5;1.3400351064646865e-103;1.0
496.96454;63.0;1.146063495564656e-99;1.0
500.74402;63.5;8.35536885164429e-96;1.0
504.52424;64.0;5.108324248581794e-92;1.0
508.30342;64.5;2.608395775036848e-88;1.0
512.08816;65.0;1.1287247824182245e-84;1.0
515.87489;65.5;4.1045047637943435e-81;1.0
519.66547;66.0;1.2588132576938114e-77;1.0
523.46282;66.5;3.2737783504841387e-74;1.0
527.26785;67.0;7.226005949501443e-71;1.0
531.11107;67.5;1.4351663456455822e-67;1.0
535.00133;68.0;2.5941725942202686e-64;1.0
538.92818;68.5;4.157235780697602e-61;1.0
542.74282;69.0;4.490101833225748e-58;1.0
546.55013;69.5;3.9947066608477434e-55;1.0
550.38302;70.0;3.1004080544549074e-52;1.0
554.18429;70.5;1.901590234995179e-49;1.0
557.93544;71.0;8.98516501038171e-47;1.0
561.66284;71.5;3.4331901248712115e-44;1.0
565.36965;72.0;1.0694518730204066e-41;1.0
569.06301;72.5;2.7525953040782415e-39;1.0
572.75413;73.0;5.959747575651413e-37;1.0
576.45703;73.5;1.1071408933262906e-34;1.0
580.16107;74.0;1.7368422067613177e-32;1.0
583.86165;74.5;2.2868793995870416e-30;1.0
587.57162;75.0;2.5694092760752923e-28;1.0
591.28702;75.5;2.448478070547998e-26;1.0
595.01128;76.0;1.985311587576521e-24;1.0
598.7338;76.5;1.3520188825313026e-22;1.0
602.46202;77.0;7.79655480924778e-21;1.0
606.19016;77.5;3.7817156829247395e-19;1.0
609.92198;78.0;1.548576115889995e-17;1.0
613.6602;78.5;5.364187621563015e-16;1.0
617.39442;79.0;1.55613489263593e-14;1.0
621.12911;79.5;3.796819853444681e-13;1.0
624.86455;80.0;7.792724103312401e-12;1.0
628.59634;80.5;1.3409024821130485e-10;1.0
632.32544;81.0;1.936659725807114e-9;1.0
636.05278;81.5;2.350073177773472e-8;1.0
639.77706;82.0;2.3946877457291134e-7;1.0
643.49529;82.5;2.0465451740575326e-6;1.0
647.21445;83.0;1.4733375472057975e-5;1.0
650.93258;83.5;8.925712249401671e-5;1.0
654.64953;84.0;0.00045507003754869215;1.0
658.36834;84.5;0.0019550885897508486;1.0
662.08907;85.0;0.007076259797619025;1.0
665.81225;85.5;0.021574364971965184;1.0
669.52587;86.0;0.05523594830455971;1.0
673.23455;86.5;0.11901444145106986;1.0
676.93171;87.0;0.21576178159001308;1.0
680.62133;87.5;0.3297583705873804;1.0
684.30083;88.0;0.42526801332985686;1.0
687.97511;88.5;0.4634255141959569;1.0
691.6386;89.0;0.4271372277397352;1.0
695.29824;89.5;0.33326754829632177;1.0
698.95684;90.0;0.22015018940629874;1.0
702.6104;90.5;0.12323175198672039;1.0
706.27711;91.0;0.05825169337227115;1.0
709.94662;91.5;0.023276724865366638;1.0
713.63249;92.0;0.00782564082046363;1.0
717.33109;92.5;0.0022115675694363165;1.0
721.03893;93.0;0.0005251970833492014;1.0
724.75496;93.5;0.00010472232747874812;1.0
728.46765;94.0;1.7614813996608552e-5;1.0
732.1838;94.5;2.4912487855643783e-6;1.0
735.89875;95.0;2.9692965736309774e-7;1.0
739.61251;95.5;2.983025480233203e-8;1.0
743.32685;96.0;2.5233062826591516e-9;1.0
747.03878;96.5;1.800989447545394e-10;1.0
750.74775;97.0;1.0854553643547743e-11;1.0
754.45156;97.5;5.536559777639636e-13;1.0
758.16385;98.0;2.3633935742758963e-14;1.0
761.88054;98.5;8.464828307706092e-16;1.0
765.60308;99.0;2.53871190423998e-17;1.0
769.32759;99.5;6.395484277971696e-19;1.0
773.04714;100.0;1.362897171879522e-20;1.0
776.76682;100.5;2.4447858040879417e-22;1.0
780.48636;101.0;3.6926118945537165e-24;1.0
784.20287;101.5;4.712506645987556e-26;1.0
787.92078;102.0;5.0557682677118e-28;1.0
791.63775;102.5;4.572617901646371e-30;1.0
795.3552;103.0;3.4803134800417336e-32;1.0
799.075;103.5;2.223292176056484e-34;1.0
802.79867;104.0;1.1890910966378907e-36;1.0
806.51585;104.5;5.403481552688949e-39;1.0
810.23353;105.0;2.0660826519071665e-41;1.0
813.94895;105.5;6.675517882138202e-44;1.0
817.66769;106.0;1.806811962997531e-46;1.0
821.39027;106.5;4.091257782399911e-49;1.0
825.10848;107.0;7.855361343348068e-52;1.0
828.83296;107.5;1.256057602885607e-54;1.0
832.55713;108.0;1.691013829586453e-57;1.0
836.28349;108.5;1.908073227109448e-60;1.0
840.00993;109.0;1.8111468384470116e-63;1.0
843.73851;109.5;1.4404063896903827e-66;1.0
847.46384;110.0;9.698470684804009e-70;1.0
851.17389;110.5;5.667736089675765e-73;1.0
854.88929;111.0;2.7600966446241254e-76;1.0
858.60524;111.5;1.1307045864451652e-79;1.0
862.3222;112.0;3.8924037423553335e-83;1.0
866.0378;112.5;1.1317465189965493e-86;1.0
869.75149;113.0;2.783331656472427e-90;1.0
873.46295;113.5;5.795632646847177e-94;1.0
877.16955;114.0;1.0284396099086979e-97;1.0
880.87456;114.5;1.5441287352423114e-101;1.0
884.58329;115.0;1.9367393664372986e-105;1.0
888.29093;115.5;2.0526880866839662e-109;1.0
891.99326;116.0;1.8584680727362015e-113;1.0
895.69271;116.5;1.429419482561087e-117;1.0
899.39064;117.0;9.310141441385263e-122;1.0
903.08196;117.5;5.2065551295507275e-126;1.0
