#EXPORTTYPE:DATA SINGLE
#FILE:00592013__Al2O3_900_5_N2_20_air_20.ngb-ds1
#FTYPE:ANSI
#IDENTITY:005920
#DECIMAL:POINT
#SEPARATOR:SEMICOLON
#MTYPE:DSC
#PROJECT:
#DATE/TIME:21.07.2025 08:33
#CORR. FILE:005919_bline_Al2O3_900_5_N2_20_air_20.ngb-bs1
#TEMPCAL:TCALZERO.TCX
#SENSITIVITY:SENSZERO.EXX
#LABORATORY: 11
#OPERATOR:
#REMARK:
#SAMPLE:1
#SAMPLE MASS /mg:9.99
#MATERIAL:
#REFERENCE:
#REFERENCE MASS /mg:0
#TYPE OF CRUCIBLE:DSC/TG pan Al2O3
#SAMPLE CRUCIBLE MASS /mg:0
#REFERENCE CRUCIBLE MASS /mg:0
#DSC RANGE /V:5000
#TG RANGE /mg:5000
#TAU-R:---
#CORR. CODE:020
#EXO:+1
#RANGE:35C/00:00/35C/5,0(K/min)/920C/
#SEGMENT:S1-2/2
#SEG. 1:35C/00:15/35C
#SEG. 2:35C/5,0(K/min)/920C

##Temp./C;Time/min;DSC/(uV/mg);Sensit./(uV/mW);Segment
34.17636;0.25;3.6407810980381347e-290;1.0;1
34.17971;0.5;3.666671256495087e-290;1.0;1
34.17888;0.75;3.660239586614438e-290;1.0;1
34.17688;1.0;3.644787859378048e-290;1.0;1
34.17253;1.25;3.6114050383201666e-290;1.0;1
34.17059;1.5;3.596615747762507e-290;1.0;1
34.16876;1.75;3.5827204988252825e-290;1.0;1
34.16682;2.0;3.5680485884886274e-290;1.0;1
34.16441;2.25;3.549905735221732e-290;1.0;1
34.16576;2.5;3.560057358068648e-290;1.0;1
34.17024;2.75;3.5939540281216874e-290;1.0;1
34.16623;3.0;3.563598430220448e-290;1.0;1
34.16288;3.25;3.5384355265902733e-290;1.0;1
34.16018;3.5;3.518284250130834e-290;1.0;1
34.158;3.75;3.5020976644413636e-290;1.0;1
34.16165;4.0;3.529241237719916e-290;1.0;1
34.16312;4.25;3.5402323229507647e-290;1.0;1
34.16582;4.5;3.5605092139818175e-290;1.0;1
34.16759;4.75;3.573864776004492e-290;1.0;1
34.16271;5.0;3.537163347203453e-290;1.0;1
34.15965;5.25;3.514342114268972e-290;1.0;1
34.15641;5.5;3.490338801415901e-290;1.0;1
34.15535;5.75;3.482521485775821e-290;1.0;1
34.15588;6.0;3.4864279542295716e-290;1.0;1
34.15641;6.25;3.490338801415901e-290;1.0;1
34.15753;6.5;3.4986176588511087e-290;1.0;1
34.15565;6.75;3.484732156828727e-290;1.0;1
34.15471;7.0;3.4778100701015014e-290;1.0;1
34.15547;7.25;3.483405585983257e-290;1.0;1
34.15894;7.5;3.509068055731812e-290;1.0;1
34.15988;7.75;3.5160523100905345e-290;1.0;1
34.157;8.0;3.4946975423557785e-290;1.0;1
34.15382;8.25;3.4712688428659866e-290;1.0;1
34.15247;8.5;3.4613702160893943e-290;1.0;1
34.15324;8.75;3.467012638477177e-290;1.0;1
34.15406;9.0;3.473031557744975e-290;1.0;1
34.15082;9.25;3.449310190396029e-290;1.0;1
34.15171;9.5;3.4558100699326963e-290;1.0;1
34.15165;9.75;3.455371491320782e-290;1.0;1
34.15165;10.0;3.455371491320782e-290;1.0;1
34.15094;10.25;3.450185865621459e-290;1.0;1
34.14553;10.5;3.410927394208067e-290;1.0;1
34.14282;10.75;3.3914299979522967e-290;1.0;1
34.14235;11.0;3.388059880739446e-290;1.0;1
34.13906;11.25;3.3645625745140345e-290;1.0;1
34.13618;11.5;3.344127207378336e-290;1.0;1
34.13253;11.75;3.3184063195549954e-290;1.0;1
34.12859;12.0;3.290863673666657e-290;1.0;1
34.12518;12.25;3.267210478808473e-290;1.0;1
34.12371;12.5;3.257066413371143e-290;1.0;1
34.123;12.75;3.252178176053145e-290;1.0;1
34.12447;13.0;3.262307028610423e-290;1.0;1
34.12429;13.25;3.2610650692949365e-290;1.0;1
34.12471;13.5;3.263963709611473e-290;1.0;1
34.12024;13.75;3.233245551395116e-290;1.0;1
34.115;14.0;3.19760351291393e-290;1.0;1
34.10647;14.25;3.140420993549982e-290;1.0;1
34.10235;14.5;3.1131688701513227e-290;1.0;1
34.10264;14.75;3.115079346658698e-290;1.0;1
34.11549;15.0;3.20091974417861e-290;1.0;2
34.10516;15.25;3.1317301276703424e-290;1.0;2
34.13672;15.5;3.3479493686799405e-290;1.0;2
34.23371;15.75;4.110320322984073e-290;1.0;2
34.42622;16.0;6.175586863434213e-290;1.0;2
34.72104;16.25;1.1516971038747487e-289;1.0;2
35.12375;16.5;2.696758756356278e-289;1.0;2
35.61708;16.75;7.641372219578447e-289;1.0;2
36.1925;17.0;2.572288439950591e-288;1.0;2
36.83655;17.25;9.994658090404067e-288;1.0;2
37.54164;17.5;4.4094830754186343e-287;1.0;2
38.29774;17.75;2.1619073091603405e-286;1.0;2
39.09878;18.0;1.1625586714762775e-285;1.0;2
39.94421;18.25;6.846411392924509e-285;1.0;2
40.82469;18.5;4.3284043057202904e-284;1.0;2
41.7454;18.75;2.968764148243723e-283;1.0;2
42.69183;19.0;2.1423754165987524e-282;1.0;2
43.66753;19.25;1.6382982676497725e-281;1.0;2
44.66731;19.5;1.3129695849455206e-280;1.0;2
45.6928;19.75;1.10622972230229e-279;1.0;2
46.74168;20.0;9.749018308353026e-279;1.0;2
47.8057;20.25;8.83241248744696e-278;1.0;2
48.88834;20.5;8.284234717045354e-277;1.0;2
49.98967;20.75;8.043675389862962e-276;1.0;2
51.10446;21.0;7.996876745506068e-275;1.0;2
52.23305;21.25;8.144936961553758e-274;1.0;2
53.37523;21.5;8.493786458017931e-273;1.0;2
54.5253;21.75;8.962440875272755e-272;1.0;2
55.68474;22.0;9.597012853673614e-271;1.0;2
56.85935;22.25;1.0551624968713695e-269;1.0;2
58.04364;22.5;1.1777306677094916e-268;1.0;2
59.23476;22.75;1.3266363428393847e-267;1.0;2
60.43665;23.0;1.520092446656007e-266;1.0;2
61.64896;23.25;1.7702564473133682e-265;1.0;2
62.86358;23.5;2.061030490934805e-264;1.0;2
64.0847;23.75;2.4191831156734963e-263;1.0;2
65.30787;24.0;2.8370603664711736e-262;1.0;2
66.53528;24.25;3.338730815444786e-261;1.0;2
67.76738;24.5;3.94617008401088e-260;1.0;2
69.00398;24.75;4.682325362858032e-259;1.0;2
70.24448;25.0;5.570508060543857e-258;1.0;2
71.48621;25.25;6.609168545792605e-257;1.0;2
72.72937;25.5;7.823182264845604e-256;1.0;2
73.97395;25.75;9.238219719607282e-255;1.0;2
75.22398;26.0;1.0970197873323623e-253;1.0;2
76.46965;26.25;1.2847704343585824e-252;1.0;2
77.71669;26.5;1.5008773584545368e-251;1.0;2
78.96561;26.75;1.750657515475549e-250;1.0;2
80.21691;27.0;2.0408400314289557e-249;1.0;2
81.47146;27.25;2.381741890489676e-248;1.0;2
82.72618;27.5;2.765853948027947e-247;1.0;2
83.9838;27.75;3.213077819162341e-246;1.0;2
85.24469;28.0;3.736517998628942e-245;1.0;2
86.50762;28.25;4.33922993295097e-244;1.0;2
87.77336;28.5;5.03957470972097e-243;1.0;2
89.03755;28.75;5.804152369091935e-242;1.0;2
90.30329;29.0;6.668835513675759e-241;1.0;2
91.5698;29.25;7.632514909275536e-240;1.0;2
92.84121;29.5;8.770576143525686e-239;1.0;2
94.11325;29.75;1.0035865524268258e-237;1.0;2
95.38379;30.0;1.1388793900756325e-236;1.0;2
96.65528;30.25;1.2877530188923771e-235;1.0;2
97.92917;30.5;1.454826759446586e-234;1.0;2
99.20502;30.75;1.640733326857996e-233;1.0;2
100.48187;31.0;1.8437954433533572e-232;1.0;2
101.76103;31.25;2.0696847417163234e-231;1.0;2
103.0401;31.5;2.31012654865105e-230;1.0;2
104.31801;31.75;2.558789021478081e-229;1.0;2
105.59486;32.0;2.8131199700192723e-228;1.0;2
106.87277;32.25;3.0819512257064237e-227;1.0;2
108.14964;32.5;3.3514944217568744e-226;1.0;2
109.42405;32.75;3.6081422907427553e-225;1.0;2
110.69828;33.0;3.8620241494145715e-224;1.0;2
111.97273;33.25;4.112970191279844e-223;1.0;2
113.24768;33.5;4.3604276871363774e-222;1.0;2
114.5243;33.75;4.611800147470704e-221;1.0;2
115.79992;34.0;4.842119392743552e-220;1.0;2
117.07061;34.25;5.0106561688126195e-219;1.0;2
118.34429;34.5;5.185356947379942e-218;1.0;2
119.61531;34.75;5.3111033252994154e-217;1.0;2
120.88649;35.0;5.412047704397733e-216;1.0;2
122.16033;35.25;5.511682156106983e-215;1.0;2
123.43437;35.5;5.584675772407369e-214;1.0;2
124.70811;35.75;5.624819601325413e-213;1.0;2
125.98445;36.0;5.661004433875425e-212;1.0;2
127.25882;36.25;5.646253536009038e-211;1.0;2
128.53598;36.5;5.6290861797998174e-210;1.0;2
129.81523;36.75;5.602283259510078e-209;1.0;2
131.09562;37.0;5.55637762085942e-208;1.0;2
132.37539;37.25;5.474530025634113e-207;1.0;2
133.6561;37.5;5.37329328683268e-206;1.0;2
134.93464;37.75;5.2247757240597295e-205;1.0;2
136.21274;38.0;5.048613223136343e-204;1.0;2
137.49378;38.25;4.8769920902322526e-203;1.0;2
138.77313;38.5;4.671367574697293e-202;1.0;2
140.05453;38.75;4.465969297750855e-201;1.0;2
141.33595;39.0;4.2462744215076936e-200;1.0;2
142.61859;39.25;4.0237731087596347e-199;1.0;2
143.90183;39.5;3.795900559372858e-198;1.0;2
145.18944;39.75;3.588406329234607e-197;1.0;2
146.47718;40.0;3.3741831526198514e-196;1.0;2
147.76393;40.25;3.1497194663407388e-195;1.0;2
149.05209;40.5;2.931024836308346e-194;1.0;2
150.3408;40.75;2.7149338250590913e-193;1.0;2
151.62972;41.0;2.5016925036371733e-192;1.0;2
152.91426;41.25;2.275205702786234e-191;1.0;2
154.20148;41.5;2.0672541517412398e-190;1.0;2
155.49062;41.75;1.8740222808106635e-189;1.0;2
156.77878;42.0;1.6865800661365828e-188;1.0;2
158.06561;42.25;1.5060443133948335e-187;1.0;2
159.35196;42.5;1.3362886164126844e-186;1.0;2
160.63758;42.75;1.1776430347840107e-185;1.0;2
161.92341;43.0;1.0324533648745609e-184;1.0;2
163.2086;43.25;8.991839156487399e-184;1.0;2
164.4928;43.5;7.774930576671483e-183;1.0;2
165.78154;43.75;6.736567502232987e-182;1.0;2
167.06936;44.0;5.795512517471701e-181;1.0;2
168.34977;44.25;4.89744183783869e-180;1.0;2
169.63009;44.5;4.115199675088834e-179;1.0;2
170.91554;44.75;3.468259261840966e-178;1.0;2
172.19972;45.0;2.900757327773329e-177;1.0;2
173.48406;45.25;2.4133521698473923e-176;1.0;2
174.77172;45.5;2.0076755175079745e-175;1.0;2
176.05543;45.75;1.6502015675576424e-174;1.0;2
177.33935;46.0;1.349355179442989e-173;1.0;2
178.6242;46.25;1.0989297737550673e-172;1.0;2
179.90738;46.5;8.876196038920079e-172;1.0;2
181.18829;46.75;7.103689196420042e-171;1.0;2
182.47006;47.0;5.661770610000982e-170;1.0;2
183.75097;47.25;4.4814872374645196e-169;1.0;2
185.03425;47.5;3.541237233304273e-168;1.0;2
186.31782;47.75;2.78412219716602e-167;1.0;2
187.59983;48.0;2.171374912545324e-166;1.0;2
188.88373;48.25;1.689251210693481e-165;1.0;2
190.16923;48.5;1.3102540655870272e-164;1.0;2
191.45527;48.75;1.0115306164554542e-163;1.0;2
192.74072;49.0;7.758629326198772e-163;1.0;2
194.02732;49.25;5.928837377305997e-162;1.0;2
195.31354;49.5;4.502774558319606e-161;1.0;2
196.59608;49.75;3.381188044219872e-160;1.0;2
197.87824;50.0;2.5234878010901387e-159;1.0;2
199.16401;50.25;1.8835766494798225e-158;1.0;2
200.44764;50.5;1.3935015632569349e-157;1.0;2
201.73136;50.75;1.0253906469028805e-156;1.0;2
203.01783;51.0;7.535586385203993e-156;1.0;2
204.30347;51.25;5.500151082384505e-155;1.0;2
205.58928;51.5;3.9933315456259894e-154;1.0;2
206.87537;51.75;2.884507620593837e-153;1.0;2
208.15991;52.0;2.067117885969597e-152;1.0;2
209.44345;52.25;1.4709212014479389e-151;1.0;2
210.72681;52.5;1.0406194621943346e-150;1.0;2
212.01088;52.75;7.329268419835037e-150;1.0;2
213.2936;53.0;5.123151522433182e-149;1.0;2
214.5738;53.25;3.547825519591165e-148;1.0;2
215.85693;53.5;2.4542141069566735e-147;1.0;2
217.1376;53.75;1.6821244291890124e-146;1.0;2
218.41693;54.0;1.1443028556131982e-145;1.0;2
219.69612;54.25;7.74009393532311e-145;1.0;2
220.97422;54.5;5.198292943382832e-144;1.0;2
222.25371;54.75;3.4792738651205186e-143;1.0;2
223.53235;55.0;2.3130386554795687e-142;1.0;2
224.81021;55.25;1.5275420560222992e-141;1.0;2
226.09061;55.5;1.0070348271070856e-140;1.0;2
227.36843;55.75;6.577513740496317e-140;1.0;2
228.64768;56.0;4.281597785636183e-139;1.0;2
229.92791;56.25;2.7757725529195156e-138;1.0;2
231.20642;56.5;1.7851956842378314e-137;1.0;2
232.48561;56.75;1.1429624521980619e-136;1.0;2
233.76529;57.0;7.282814382401614e-136;1.0;2
235.04474;57.25;4.6135413794856797e-135;1.0;2
236.32303;57.5;2.9017408847749454e-134;1.0;2
237.60062;57.75;1.8132782757698375e-133;1.0;2
238.87774;58.0;1.1261557151440188e-132;1.0;2
240.15528;58.25;6.960067449566372e-132;1.0;2
241.43348;58.5;4.282082698537773e-131;1.0;2
242.71028;58.75;2.6148914639606827e-130;1.0;2
243.98549;59.0;1.5845309103594207e-129;1.0;2
245.26213;59.25;9.568627812683272e-129;1.0;2
246.53866;59.5;5.745856432782555e-128;1.0;2
247.81596;59.75;3.435190876314556e-127;1.0;2
249.09604;60.0;2.0504544398416107e-126;1.0;2
250.37415;60.25;1.2138670482457435e-125;1.0;2
251.65413;60.5;7.165302626061087e-125;1.0;2
252.93088;60.75;4.187664873480972e-124;1.0;2
254.20527;61.0;2.426170687762066e-123;1.0;2
255.48188;61.25;1.4022491038444118e-122;1.0;2
256.75935;61.5;8.06980624471141e-122;1.0;2
258.03566;61.75;4.61141478914514e-121;1.0;2
259.31061;62.0;2.615934283417072e-120;1.0;2
260.5913;62.25;1.4873957923302534e-119;1.0;2
261.86723;62.5;8.356842678756517e-119;1.0;2
263.14207;62.75;4.662795317896994e-118;1.0;2
264.4204;63.0;2.599647591687144e-117;1.0;2
265.69965;63.25;1.4432247249623413e-116;1.0;2
266.97776;63.5;7.956217720850276e-116;1.0;2
268.25613;63.75;4.363621886756098e-115;1.0;2
269.53536;64.0;2.3828631376164664e-114;1.0;2
270.812;64.25;1.2896716042487072e-113;1.0;2
272.08608;64.5;6.918609905901437e-113;1.0;2
273.35924;64.75;3.6869477919376917e-112;1.0;2
274.63184;65.0;1.952689354496955e-111;1.0;2
275.90614;65.25;1.0308604232566652e-110;1.0;2
277.18125;65.5;5.418205333974382e-110;1.0;2
278.45575;65.75;2.8300677772056285e-109;1.0;2
279.72908;66.0;1.467957576779786e-108;1.0;2
281.00597;66.25;7.607719262080161e-108;1.0;2
282.28424;66.5;3.9281317760227536e-107;1.0;2
283.55969;66.75;2.0098783214752348e-106;1.0;2
284.83607;67.0;1.0239893014503351e-105;1.0;2
286.11123;67.25;5.180512176796136e-105;1.0;2
287.38776;67.5;2.6111465668451072e-104;1.0;2
288.66564;67.75;1.3111502780129395e-103;1.0;2
289.93998;68.0;6.518695268142781e-103;1.0;2
291.21275;68.25;3.216968861800534e-102;1.0;2
292.48485;68.5;1.5776384379715152e-101;1.0;2
293.75679;68.75;7.693460150365253e-101;1.0;2
295.03095;69.0;3.7417208230658385e-100;1.0;2
296.30732;69.25;1.8148417292508845e-99;1.0;2
297.58201;69.5;8.736396586289899e-99;1.0;2
298.8559;69.75;4.178594404978287e-98;1.0;2
300.12904;70.0;1.985927491546025e-97;1.0;2
301.40185;70.25;9.383355545811442e-97;1.0;2
302.67501;70.5;4.4113834834354655e-96;1.0;2
303.94703;70.75;2.0598177769527318e-95;1.0;2
305.21803;71.0;9.554089090040293e-95;1.0;2
306.48649;71.25;4.394093105884889e-94;1.0;2
307.75531;71.5;2.0108968956049877e-93;1.0;2
309.02802;71.75;9.195530055153291e-93;1.0;2
310.29853;72.0;4.171251860630511e-92;1.0;2
311.56769;72.25;1.8789185244025453e-91;1.0;2
312.83753;72.5;8.424588993724319e-91;1.0;2
314.10683;72.75;3.7545879553200194e-90;1.0;2
315.37299;73.0;1.6581713920922552e-89;1.0;2
316.64198;73.25;7.30789853364273e-89;1.0;2
317.91197;73.5;3.207096186505772e-88;1.0;2
319.1809;73.75;1.3981254262152215e-87;1.0;2
320.44907;74.0;6.0569108486499e-87;1.0;2
321.7193;74.25;2.616009669759391e-86;1.0;2
322.98787;74.5;1.1216276692972701e-85;1.0;2
324.25798;74.75;4.7915319329728335e-85;1.0;2
325.52625;75.0;2.0316036414414336e-84;1.0;2
326.7946;75.25;8.568348800412246e-84;1.0;2
328.06304;75.5;3.594622661183777e-83;1.0;2
329.33185;75.75;1.5005265590452238e-82;1.0;2
330.59915;76.0;6.219448928534891e-82;1.0;2
331.86755;76.25;2.5671477144851517e-81;1.0;2
333.13933;76.5;1.057876211047527e-80;1.0;2
334.40904;76.75;4.3257840252578504e-80;1.0;2
335.67245;77.0;1.747134738112799e-79;1.0;2
336.93544;77.25;7.015517880934159e-79;1.0;2
338.20055;77.5;2.808499249356221e-78;1.0;2
339.46693;77.75;1.1198400578803773e-77;1.0;2
340.73428;78.0;4.445865209006218e-77;1.0;2
342.00115;78.25;1.7546428606955615e-76;1.0;2
343.26709;78.5;6.88090317722113e-76;1.0;2
344.53291;78.75;2.683546080390668e-75;1.0;2
345.80069;79.0;1.0431474594353784e-74;1.0;2
347.06785;79.25;4.0304332557607995e-74;1.0;2
348.3319;79.5;1.5437749713059973e-73;1.0;2
349.59639;79.75;5.884205740688853e-73;1.0;2
350.86188;80.0;2.233143660032636e-72;1.0;2
352.1271;80.25;8.427274137299774e-72;1.0;2
353.39172;80.5;3.161194363041129e-71;1.0;2
354.65781;80.75;1.1812622071312206e-70;1.0;2
355.92307;81.0;4.386626704328944e-70;1.0;2
357.18959;81.25;1.6223490666824538e-69;1.0;2
358.45673;81.5;5.971658276077373e-69;1.0;2
359.7225;81.75;2.183211864174608e-68;1.0;2
360.98529;82.0;7.914856363043872e-68;1.0;2
362.2481;82.25;2.854127909929972e-67;1.0;2
363.51337;82.5;1.0262578801780547e-66;1.0;2
364.77634;82.75;3.661853226780893e-66;1.0;2
366.03935;83.0;1.2996802526514694e-65;1.0;2
367.30312;83.25;4.591712310466373e-65;1.0;2
368.56488;83.5;1.6103393149444188e-64;1.0;2
369.82594;83.75;5.6135546911016525e-64;1.0;2
371.08644;84.0;1.9453602600123882e-63;1.0;2
372.3491;84.25;6.719917856337679e-63;1.0;2
373.6113;84.5;2.30785193572173e-62;1.0;2
374.87039;84.75;7.859896286104502e-62;1.0;2
376.13427;85.0;2.6750088496828494e-61;1.0;2
377.3972;85.25;9.047047392522092e-61;1.0;2
378.65996;85.5;3.042927923986661e-60;1.0;2
379.92084;85.75;1.0161829983712006e-59;1.0;2
381.17904;86.0;3.3668824479400926e-59;1.0;2
382.43822;86.25;1.1106515277134928e-58;1.0;2
383.69957;86.5;3.651764065080147e-58;1.0;2
384.95855;86.75;1.1916332277066305e-57;1.0;2
386.2178;87.0;3.868836332467921e-57;1.0;2
387.47842;87.25;1.251002593332375e-56;1.0;2
388.73801;87.5;4.0198040837951826e-56;1.0;2
389.99809;87.75;1.2853861947812189e-55;1.0;2
391.25439;88.0;4.074204284328564e-55;1.0;2
392.51012;88.25;1.2838802004307958e-54;1.0;2
393.77304;88.5;4.0508015093606245e-54;1.0;2
395.0354;88.75;1.2706082081928962e-53;1.0;2
396.29712;89.0;3.961944909103124e-53;1.0;2
397.55643;89.25;1.2261591497678048e-52;1.0;2
398.81709;89.5;3.779155322848338e-52;1.0;2
400.07888;89.75;1.1597382451479051e-51;1.0;2
401.33978;90.0;3.537221947560857e-51;1.0;2
402.59868;90.25;1.0712315702356752e-50;1.0;2
403.85839;90.5;3.229241704879702e-50;1.0;2
405.11936;90.75;9.693472055707329e-50;1.0;2
406.37907;91.0;2.89111768375738e-49;1.0;2
407.63825;91.25;8.573136345273788e-49;1.0;2
408.90137;91.5;2.5372757553373276e-48;1.0;2
410.15997;91.75;7.440378722536094e-48;1.0;2
411.41797;92.0;2.169157928682447e-47;1.0;2
412.67616;92.25;6.291424799510673e-47;1.0;2
413.93518;92.5;1.8163560436923375e-46;1.0;2
415.19164;92.75;5.204895971958715e-46;1.0;2
416.4495;93.0;1.485341826961081e-45;1.0;2
417.70611;93.25;4.211959595451169e-45;1.0;2
418.9638;93.5;1.18911865914623e-44;1.0;2
420.22125;93.75;3.3386740455211775e-44;1.0;2
421.47783;94.0;9.317708108480856e-44;1.0;2
422.7334;94.25;2.5845559718416782e-43;1.0;2
423.98984;94.5;7.136222103286686e-43;1.0;2
425.24798;94.75;1.9626400781582427e-42;1.0;2
426.50623;95.0;5.3696083625896345e-42;1.0;2
427.76242;95.25;1.4589007012017036e-41;1.0;2
429.01907;95.5;3.944257206822428e-41;1.0;2
430.27473;95.75;1.0598981969959922e-40;1.0;2
431.53449;96.0;2.8421970299759882e-40;1.0;2
432.79547;96.25;7.588244191219734e-40;1.0;2
434.05343;96.5;2.0104645324585686e-39;1.0;2
435.31265;96.75;5.3035186257501404e-39;1.0;2
436.57329;97.0;1.3931262978714607e-38;1.0;2
437.83529;97.25;3.643744890330269e-38;1.0;2
439.09275;97.5;9.44698337076943e-38;1.0;2
440.3477;97.75;2.431719027292185e-37;1.0;2
441.60436;98.0;6.2343570906216436e-37;1.0;2
442.85881;98.25;1.587281376057782e-36;1.0;2
444.11734;98.5;4.0320884117193034e-36;1.0;2
445.37682;98.75;1.0195282785025652e-35;1.0;2
446.63769;99.0;2.5668228991538223e-35;1.0;2
447.8979;99.25;6.424893829666157e-35;1.0;2
449.15915;99.5;1.6008325561954687e-34;1.0;2
450.41896;99.75;3.9633029070316295e-34;1.0;2
451.67637;100.0;9.743401366486643e-34;1.0;2
452.93349;100.25;2.3821484924637574e-33;1.0;2
454.18906;100.5;5.7869254421523925e-33;1.0;2
455.4418;100.75;1.3956187995109313e-32;1.0;2
456.69625;101.0;3.352078803898381e-32;1.0;2
457.9502;101.25;8.006014536202687e-32;1.0;2
459.20187;101.5;1.899084000233137e-31;1.0;2
460.45538;101.75;4.4867678496483755e-31;1.0;2
461.71293;102.0;1.0573623436354612e-30;1.0;2
462.96792;102.25;2.4743261254948164e-30;1.0;2
464.22181;102.5;5.755360130392221e-30;1.0;2
465.4741;102.75;1.3302453300711054e-29;1.0;2
466.72711;103.0;3.059927648829908e-29;1.0;2
467.97989;103.25;7.000597585565056e-29;1.0;2
469.23256;103.5;1.5930850829092665e-28;1.0;2
470.48607;103.75;3.608207865876548e-28;1.0;2
471.73886;104.0;8.12551046020865e-28;1.0;2
472.99183;104.25;1.8204176722785963e-27;1.0;2
474.24319;104.5;4.052809257453679e-27;1.0;2
475.4947;104.75;8.976331540438121e-27;1.0;2
476.74682;105.0;1.978445338834704e-26;1.0;2
477.9978;105.25;4.334643919656619e-26;1.0;2
479.24884;105.5;9.447495695138165e-26;1.0;2
480.50127;105.75;2.0500744471503957e-25;1.0;2
481.75305;106.0;4.423460609140917e-25;1.0;2
483.00552;106.25;9.498427655855487e-25;1.0;2
484.25633;106.5;2.0268342372125846e-24;1.0;2
485.50699;106.75;4.30193685905797e-24;1.0;2
486.76037;107.0;9.097710748222171e-24;1.0;2
488.01307;107.25;1.913086376792266e-23;1.0;2
489.26592;107.5;4.002088850776208e-23;1.0;2
490.51994;107.75;8.333854676696384e-23;1.0;2
491.77211;108.0;1.7244351304252772e-22;1.0;2
493.02381;108.25;3.5484928914640673e-22;1.0;2
494.27758;108.5;7.272248829087449e-22;1.0;2
495.53053;108.75;1.4818338062697356e-21;1.0;2
496.78162;109.0;3.000454159609336e-21;1.0;2
498.03446;109.25;6.049445949449221e-21;1.0;2
499.28728;109.5;1.2132501072520922e-20;1.0;2
500.54115;109.75;2.4218459560095177e-20;1.0;2
501.7957;110.0;4.810728026747875e-20;1.0;2
503.04837;110.25;9.495946834832983e-20;1.0;2
504.30081;110.5;1.8643339599287534e-19;1.0;2
505.55352;110.75;3.641530648273256e-19;1.0;2
506.80422;111.0;7.067968691324384e-19;1.0;2
508.05466;111.25;1.3644727166195318e-18;1.0;2
509.30698;111.5;2.622884388459903e-18;1.0;2
510.56153;111.75;5.021177262450337e-18;1.0;2
511.79767;112.0;9.47214422737252e-18;1.0;2
513.03393;112.25;1.7778251377485108e-17;1.0;2
514.31439;112.5;3.394347301985339e-17;1.0;2
515.60267;112.75;6.470320090344568e-17;1.0;2
516.89114;113.0;1.2266358230217097e-16;1.0;2
518.17694;113.25;2.309491074027878e-16;1.0;2
519.45943;113.5;4.3172553438001847e-16;1.0;2
520.74009;113.75;8.018958131339396e-16;1.0;2
522.02135;114.0;1.481701132584072e-15;1.0;2
523.31841;114.25;2.7431708448738495e-15;1.0;2
524.65846;114.5;5.152690840823698e-15;1.0;2
526.02518;114.75;9.740172345511899e-15;1.0;2
527.4373;115.0;1.868201704521926e-14;1.0;2
528.91427;115.25;3.6657199613596924e-14;1.0;2
530.34023;115.5;6.97856613594582e-14;1.0;2
531.69136;115.75;1.2763334657240106e-13;1.0;2
532.99981;116.0;2.2768908216579747e-13;1.0;2
534.27673;116.25;3.983414395963292e-13;1.0;2
535.53155;116.5;6.865119194453964e-13;1.0;2
536.76971;116.75;1.1685609373651118e-12;1.0;2
537.99608;117.0;1.9690243651372522e-12;1.0;2
539.21808;117.25;3.295047753132297e-12;1.0;2
540.43685;117.5;5.479137016271781e-12;1.0;2
541.65391;117.75;9.059224994553265e-12;1.0;2
542.87079;118.0;1.4903145175634614e-11;1.0;2
544.08577;118.25;2.4376580533161278e-11;1.0;2
545.2994;118.5;3.9653449886396115e-11;1.0;2
546.51408;118.75;6.421273655130049e-11;1.0;2
547.73081;119.0;1.0355176136524751e-10;1.0;2
548.94731;119.25;1.661484042252578e-10;1.0;2
550.16303;119.5;2.6518385577875246e-10;1.0;2
551.38091;119.75;4.215000001165915e-10;1.0;2
552.60092;120.0;6.671619696756422e-10;1.0;2
553.823;120.25;1.0515433306972436e-9;1.0;2
555.04616;120.5;1.649744777446956e-9;1.0;2
556.2706;120.75;2.5764737080047825e-9;1.0;2
557.49705;121.0;4.006458471521012e-9;1.0;2
558.72281;121.25;6.197205747103753e-9;1.0;2
559.94718;121.5;9.532985185366699e-9;1.0;2
561.17195;121.75;1.4592703071218474e-8;1.0;2
562.39775;122.0;2.223349199344086e-8;1.0;2
563.62401;122.25;3.37097619456963e-8;1.0;2
564.8499;122.5;5.084604597182628e-8;1.0;2
566.07719;122.75;7.634263481281798e-8;1.0;2
567.30459;123.0;1.1405018149548119e-7;1.0;2
568.53556;123.25;1.6971695496633262e-7;1.0;2
569.76588;123.5;2.5122059266456736e-7;1.0;2
570.99541;123.75;3.6988820964763155e-7;1.0;2
572.22268;124.0;5.414748790111915e-7;1.0;2
573.45063;124.25;7.888227716995915e-7;1.0;2
574.68457;124.5;1.1454140786164527e-6;1.0;2
575.91688;124.75;1.653923812843026e-6;1.0;2
577.14862;125.0;2.375645117371924e-6;1.0;2
578.38872;125.25;3.4031401428121142e-6;1.0;2
579.63101;125.5;4.852941805147793e-6;1.0;2
580.8682;125.75;6.87481108982811e-6;1.0;2
582.1069;126.0;9.693145798987594e-6;1.0;2
583.34579;126.25;1.3597322895419126e-5;1.0;2
584.58099;126.5;1.8957274426750016e-5;1.0;2
585.81596;126.75;2.6293419885624402e-5;1.0;2
587.05229;127.0;3.629500078506046e-5;1.0;2
588.2876;127.25;4.9831581571615706e-5;1.0;2
589.52354;127.5;6.807781110803898e-5;1.0;2
590.7589;127.75;9.251598030912033e-5;1.0;2
591.99843;128.0;0.00012521047783936275;1.0;2
593.23967;128.25;0.00016865552665061337;1.0;2
594.48051;128.5;0.00022598156497459788;1.0;2
595.72253;128.75;0.0003013128577820919;1.0;2
596.96414;129.0;0.00039964326003669604;1.0;2
598.20708;129.25;0.0005274810799606545;1.0;2
599.45067;129.5;0.000692706909780592;1.0;2
600.69309;129.75;0.0009047500403466284;1.0;2
601.93552;130.0;0.001175594286703989;1.0;2
603.17808;130.25;0.0015196609039904772;1.0;2
604.42145;130.5;0.0019545858049622752;1.0;2
605.66623;130.75;0.00250166023100298;1.0;2
606.90861;131.0;0.0031837730432323318;1.0;2
608.15011;131.25;0.004030260343461015;1.0;2
609.39333;131.5;0.005077073761432952;1.0;2
610.63595;131.75;0.006361990806227156;1.0;2
611.87783;132.0;0.007929839497731473;1.0;2
613.12313;132.25;0.009838768460923004;1.0;2
614.36584;132.5;0.012138575206851918;1.0;2
615.6071;132.75;0.01489498223736136;1.0;2
616.8482;133.0;0.01818252963665934;1.0;2
618.08904;133.25;0.02208029229838741;1.0;2
619.3303;133.5;0.026677020537847658;1.0;2
620.57247;133.75;0.03206864643866547;1.0;2
621.81521;134.0;0.038353838438260825;1.0;2
623.05379;134.25;0.045607455551040066;1.0;2
624.29356;134.5;0.053962822300710644;1.0;2
625.534;134.75;0.06352571817701545;1.0;2
626.77557;135.0;0.0744084089439786;1.0;2
628.01476;135.25;0.08668046048446505;1.0;2
629.25352;135.5;0.10045212042419055;1.0;2
630.49168;135.75;0.1158056417142652;1.0;2
631.72643;136.0;0.13277114518838787;1.0;2
632.96171;136.25;0.15145314820883413;1.0;2
634.19639;136.5;0.17187053038593939;1.0;2
635.43054;136.75;0.19403461032840674;1.0;2
636.6665;137.0;0.21797570124952456;1.0;2
637.90129;137.25;0.24359283008647184;1.0;2
639.13785;137.5;0.27087051334906415;1.0;2
640.37426;137.75;0.29965657944316476;1.0;2
641.61084;138.0;0.32980866380560026;1.0;2
642.84821;138.25;0.36115591902114963;1.0;2
644.08657;138.5;0.3934806714532792;1.0;2
645.32256;138.75;0.42643297904222677;1.0;2
646.55795;139.0;0.4597639659376487;1.0;2
647.79259;139.25;0.4931460077224443;1.0;2
649.02743;139.5;0.5262564922293372;1.0;2
650.26134;139.75;0.5586977350914432;1.0;2
651.49313;140.0;0.5900611606863562;1.0;2
652.72526;140.25;0.6200261304271732;1.0;2
653.95775;140.5;0.6482078169510184;1.0;2
655.18763;140.75;0.6741699422518099;1.0;2
656.4166;141.0;0.6976031079985542;1.0;2
657.64601;141.25;0.7182057732865648;1.0;2
658.87412;141.5;0.735656814693198;1.0;2
660.10143;141.75;0.7497170812109877;1.0;2
661.33029;142.0;0.7602020745681436;1.0;2
662.55916;142.25;0.7669348024240213;1.0;2
663.78665;142.5;0.7698124703015126;1.0;2
665.017;142.75;0.7687943419194788;1.0;2
666.24737;143.0;0.763884567784112;1.0;2
667.4744;143.25;0.7551863684148153;1.0;2
668.70292;143.5;0.7428049514512255;1.0;2
669.93097;143.75;0.7269397119704596;1.0;2
671.15414;144.0;0.7079017435463668;1.0;2
672.37582;144.25;0.685936115983022;1.0;2
673.59741;144.5;0.6613311742493713;1.0;2
674.8184;144.75;0.6344354249822545;1.0;2
676.03891;145.0;0.6056058629089397;1.0;2
677.25819;145.25;0.5752331551199963;1.0;2
678.47688;145.5;0.5436783849493623;1.0;2
679.69699;145.75;0.5112601198998477;1.0;2
680.91548;146.0;0.4784213146430257;1.0;2
682.13134;146.25;0.4455363044776942;1.0;2
683.34619;146.5;0.4128840730598977;1.0;2
684.55985;146.75;0.3807644206908227;1.0;2
685.77544;147.0;0.34936179038806287;1.0;2
686.98574;147.25;0.3190922118142535;1.0;2
688.19631;147.5;0.29000885500065376;1.0;2
689.40668;147.75;0.26228683725697755;1.0;2
690.61771;148.0;0.23603678756131502;1.0;2
691.83061;148.25;0.21133352314243262;1.0;2
693.04255;148.5;0.1883008150549961;1.0;2
694.25602;148.75;0.1669270184708583;1.0;2
695.47319;149.0;0.1471920112921283;1.0;2
696.69398;149.25;0.12909490769274473;1.0;2
697.91586;149.5;0.11264366143107922;1.0;2
699.14164;149.75;0.09775245733615091;1.0;2
700.37065;150.0;0.08436968543155647;1.0;2
701.60075;150.25;0.07244071472228099;1.0;2
702.83051;150.5;0.06188587254953827;1.0;2
704.06034;150.75;0.05260060397588679;1.0;2
705.29073;151.0;0.04447854161248926;1.0;2
706.52578;151.25;0.03739505304294779;1.0;2
707.76142;151.5;0.03127632165576546;1.0;2
708.99947;151.75;0.026015530206374947;1.0;2
710.23597;152.0;0.021533701586176474;1.0;2
711.47132;152.25;0.017735949285102005;1.0;2
712.7091;152.5;0.014527546295944936;1.0;2
713.94498;152.75;0.011842241348422449;1.0;2
715.18051;153.0;0.009604485944265625;1.0;2
716.41598;153.25;0.007749838973093969;1.0;2
717.64937;153.5;0.006223686396462333;1.0;2
718.88539;153.75;0.0049702014297286195;1.0;2
720.12085;154.0;0.003949281002376657;1.0;2
721.3571;154.25;0.0031215486218684153;1.0;2
722.59216;154.5;0.0024552452340272377;1.0;2
723.82674;154.75;0.0019214846625321804;1.0;2
725.06143;155.0;0.0014960508811808443;1.0;2
726.29598;155.25;0.001158898208484983;1.0;2
727.53204;155.5;0.0008928567391200179;1.0;2
728.76945;155.75;0.0006841680054864732;1.0;2
730.00617;156.0;0.000521647410594448;1.0;2
731.24206;156.25;0.00039576930809196847;1.0;2
732.47824;156.5;0.0002987106451577942;1.0;2
733.71248;156.75;0.0002244025079265979;1.0;2
734.95014;157.0;0.0001675828837497131;1.0;2
736.18665;157.25;0.00012454279749261467;1.0;2
737.42311;157.5;9.208378145902587e-5;1.0;2
738.66134;157.75;6.770575217545329e-5;1.0;2
739.89823;158.0;4.954275667034318e-5;1.0;2
741.13524;158.25;3.606534883043632e-5;1.0;2
742.37096;158.5;2.612858028097222e-5;1.0;2
743.60685;158.75;1.8831930553585288e-5;1.0;2
744.84184;159.0;1.3506795836029202e-5;1.0;2
746.0747;159.25;9.643623108353823e-6;1.0;2
747.30754;159.5;6.850368252465464e-6;1.0;2
748.54211;159.75;4.839026030758538e-6;1.0;2
749.77401;160.0;3.4033991869251126e-6;1.0;2
751.00673;160.25;2.380952286189442e-6;1.0;2
752.24085;160.5;1.6565035503804649e-6;1.0;2
753.47352;160.75;1.1471016836976124e-6;1.0;2
754.70893;161.0;7.896477102854634e-7;1.0;2
755.94445;161.25;5.407845755971564e-7;1.0;2
757.17855;161.5;3.6862246459278385e-7;1.0;2
758.41213;161.75;2.500286314078411e-7;1.0;2
759.64654;162.0;1.6867968905845055e-7;1.0;2
760.88041;162.25;1.1323739288593336e-7;1.0;2
762.11627;162.5;7.558091730367022e-8;1.0;2
763.35118;162.75;5.020472076939609e-8;1.0;2
764.58722;163.0;3.316555857918879e-8;1.0;2
765.82332;163.25;2.179681771152018e-8;1.0;2
767.05869;163.5;1.4255426026475056e-8;1.0;2
768.29501;163.75;9.27250894952922e-9;1.0;2
769.53183;164.0;5.999407173384641e-9;1.0;2
770.76952;164.25;3.860585344157901e-9;1.0;2
772.00806;164.5;2.470757696228344e-9;1.0;2
773.24657;164.75;1.5731670025145554e-9;1.0;2
774.48443;165.0;9.96752101584784e-10;1.0;2
775.72237;165.25;6.282779510011729e-10;1.0;2
776.96229;165.5;3.936910966662799e-10;1.0;2
778.1998;165.75;2.4565090434674354e-10;1.0;2
779.43603;166.0;1.5256787282996806e-10;1.0;2
780.67127;166.25;9.430774904335823e-11;1.0;2
781.90496;166.5;5.8032703945397416e-11;1.0;2
783.13976;166.75;3.551287946471222e-11;1.0;2
784.3755;167.0;2.1612770857429454e-11;1.0;2
785.60911;167.25;1.309741284143076e-11;1.0;2
786.84159;167.5;7.900299563110388e-12;1.0;2
788.07654;167.75;4.736305312218456e-12;1.0;2
789.31232;168.0;2.823970029638866e-12;1.0;2
790.54753;168.25;1.6755541179878466e-12;1.0;2
791.78212;168.5;9.893437414197846e-13;1.0;2
793.01725;168.75;5.810474052083227e-13;1.0;2
794.25524;169.0;3.3908468951141536e-13;1.0;2
795.49293;169.25;1.9689159265981467e-13;1.0;2
796.72949;169.5;1.1379697759914292e-13;1.0;2
797.96624;169.75;6.542853985028744e-14;1.0;2
799.20028;170.0;3.7472019951943615e-14;1.0;2
800.43547;170.25;2.1340147799761504e-14;1.0;2
801.67162;170.5;1.2085652242095201e-14;1.0;2
802.90479;170.75;6.8189516027824716e-15;1.0;2
804.14132;171.0;3.821739459455474e-15;1.0;2
805.37873;171.25;2.130067478083795e-15;1.0;2
806.61295;171.5;1.1829209218350395e-15;1.0;2
807.84551;171.75;6.541006454084947e-16;1.0;2
809.07993;172.0;3.595212582369809e-16;1.0;2
810.31169;172.25;1.9685642590888332e-16;1.0;2
811.54371;172.5;1.0722746153222647e-16;1.0;2
812.77867;172.75;5.802448506318152e-17;1.0;2
814.01246;173.0;3.125706542065994e-17;1.0;2
815.24484;173.25;1.6763935023088193e-17;1.0;2
816.47487;173.5;8.955938647111183e-18;1.0;2
817.70859;173.75;4.751306753501374e-18;1.0;2
818.94354;174.0;2.506210335569722e-18;1.0;2
820.17685;174.25;1.3163493018562782e-18;1.0;2
821.40964;174.5;6.880592501996158e-19;1.0;2
822.64283;174.75;3.5774341808394017e-19;1.0;2
823.87678;175.0;1.8497904718466368e-19;1.0;2
825.11109;175.25;9.514113512797745e-20;1.0;2
826.34589;175.5;4.867167770695456e-20;1.0;2
827.57988;175.75;2.478299721907668e-20;1.0;2
828.81525;176.0;1.254524393437751e-20;1.0;2
830.05052;176.25;6.318339094842183e-21;1.0;2
831.28266;176.5;3.171499668784461e-21;1.0;2
832.51802;176.75;1.580961915290654e-21;1.0;2
833.75179;177.0;7.847764251531241e-22;1.0;2
834.98725;177.25;3.871946650863761e-22;1.0;2
836.22185;177.5;1.9015278394012794e-22;1.0;2
837.45499;177.75;9.298700690655445e-23;1.0;2
838.69067;178.0;4.517284256957185e-23;1.0;2
839.92695;178.25;2.1824882774189495e-23;1.0;2
841.16239;178.5;1.0495772331373977e-23;1.0;2
842.39641;178.75;5.025973962953075e-24;1.0;2
843.63011;179.0;2.3949092054512388e-24;1.0;2
844.86589;179.25;1.133939361827183e-24;1.0;2
846.10147;179.5;5.342155860266418e-25;1.0;2
847.33569;179.75;2.5059956802002726e-25;1.0;2
848.56946;180.0;1.169886230551109e-25;1.0;2
849.80118;180.25;5.440543346410097e-26;1.0;2
851.03426;180.5;2.5151135077425172e-26;1.0;2
852.2652;180.75;1.1583579598268961e-26;1.0;2
853.49962;181.0;5.2961093486401635e-27;1.0;2
854.7352;181.25;2.4072784390461926e-27;1.0;2
855.96932;181.5;1.0896270012510371e-27;1.0;2
857.20286;181.75;4.9087574615324225e-28;1.0;2
858.43773;182.0;2.1982102958894728e-28;1.0;2
859.67186;182.25;9.798376315070399e-29;1.0;2
860.90436;182.5;4.349964046003073e-29;1.0;2
862.13858;182.75;1.919133033040103e-29;1.0;2
863.37203;183.0;8.428043356601543e-30;1.0;2
864.60703;183.25;3.678547838919471e-30;1.0;2
865.84215;183.5;1.5972261539548168e-30;1.0;2
867.07611;183.75;6.905180876118431e-31;1.0;2
868.31209;184.0;2.965933961862794e-31;1.0;2
869.54783;184.25;1.2676283528304235e-31;1.0;2
870.78276;184.5;5.393113785076069e-32;1.0;2
872.0177;184.75;2.28275923255039e-32;1.0;2
873.2523;185.0;9.61524226537132e-33;1.0;2
874.48665;185.25;4.030084694518711e-33;1.0;2
875.72051;185.5;1.68111475258504e-33;1.0;2
876.95495;185.75;6.973972928572071e-34;1.0;2
878.1884;186.0;2.880381163988259e-34;1.0;2
879.42137;186.25;1.1839998697604297e-34;1.0;2
880.65304;186.5;4.846708642781155e-35;1.0;2
881.88662;186.75;1.971165678255006e-35;1.0;2
883.12136;187.0;7.969105442944705e-36;1.0;2
884.35346;187.25;3.2115943902367814e-36;1.0;2
885.58682;187.5;1.2865032414916417e-36;1.0;2
886.82156;187.75;5.121938697893109e-37;1.0;2
888.055;188.0;2.0307623225385084e-37;1.0;2
889.28855;188.25;8.009934641896351e-38;1.0;2
890.52117;188.5;3.145479433473962e-38;1.0;2
891.75585;188.75;1.227001165910438e-38;1.0;2
892.98619;189.0;4.7778085154848404e-39;1.0;2
894.21612;189.25;1.851580208287009e-39;1.0;2
895.45021;189.5;7.116173978450593e-40;1.0;2
896.68198;189.75;2.725941386332543e-40;1.0;2
897.91234;190.0;1.040050870144219e-40;1.0;2
899.14484;190.25;3.9414079944239347e-41;1.0;2
900.3779;190.5;1.4853879206134014e-41;1.0;2
901.61041;190.75;5.571877423557587e-42;1.0;2
902.84523;191.0;2.075599214690215e-42;1.0;2
904.0798;191.25;7.693948190456105e-43;1.0;2
905.31537;191.5;2.835178625754525e-43;1.0;2
906.55047;191.75;1.0398038070232241e-43;1.0;2
