#EXPORTTYPE:DATA SINGLE
#FILE:00592013__Al2O3_900_5_N2_20_air_20.ngb-ds1
#FTYPE:ANSI
#IDENTITY:005920
#DECIMAL:POINT
#SEPARATOR:SEMICOLON
#MTYPE:DSC
#PROJECT:
#DATE/TIME:21.07.2025 08:33
#CORR. FILE:005919_bline_Al2O3_900_5_N2_20_air_20.ngb-bs1
#TEMPCAL:TCALZERO.TCX
#SENSITIVITY:SENSZERO.EXX
#LABORATORY: 11
#OPERATOR:
#REMARK:
#SAMPLE:1
#SAMPLE MASS /mg:9.99
#MATERIAL:
#REFERENCE:
#REFERENCE MASS /mg:0
#TYPE OF CRUCIBLE:DSC/TG pan Al2O3
#SAMPLE CRUCIBLE MASS /mg:0
#REFERENCE CRUCIBLE MASS /mg:0
#DSC RANGE /V:5000
#TG RANGE /mg:5000
#TAU-R:---
#CORR. CODE:020
#EXO:+1
#RANGE:35C/00:00/35C/5,0(K/min)/920C/
#SEGMENT:S1-2/2
#SEG. 1:35C/00:15/35C
#SEG. 2:35C/5,0(K/min)/920C

##Temp./C;Time/min;DSC/(uV/mg);Sensit./(uV/mW);Segment
34.17636;0.25;1.4840987376991577e-67;1.0;1
34.17971;0.5;1.48674339556044e-67;1.0;1
34.17888;0.75;1.4860877145469926e-67;1.0;1
34.17688;1.0;1.4845089441024114e-67;1.0;1
34.17253;1.25;1.4810808884135421e-67;1.0;1
34.17059;1.5;1.479554599650824e-67;1.0;1
34.16876;1.75;1.4781162900220181e-67;1.0;1
34.16682;2.0;1.4765930464565837e-67;1.0;1
34.16441;2.25;1.4747029486599851e-67;1.0;1
34.16576;2.5;1.4757614198577977e-67;1.0;1
34.17024;2.75;1.4792794052610997e-67;1.0;1
34.16623;3.0;1.4761301023284477e-67;1.0;1
34.16288;3.25;1.4735042627247998e-67;1.0;1
34.16018;3.5;1.4713913032425154e-67;1.0;1
34.158;3.75;1.4696874879498959e-67;1.0;1
34.16165;4.0;1.472541317488418e-67;1.0;1
34.16312;4.25;1.4736922276490263e-67;1.0;1
34.16582;4.5;1.4758084805938995e-67;1.0;1
34.16759;4.75;1.4771974454626049e-67;1.0;1
34.16271;5.0;1.4733711353620396e-67;1.0;1
34.15965;5.25;1.470976891861223e-67;1.0;1
34.15641;5.5;1.4684460373420168e-67;1.0;1
34.15535;5.75;1.4676189843579366e-67;1.0;1
34.15588;6.0;1.4680324527962056e-67;1.0;1
34.15641;6.25;1.4684460373420168e-67;1.0;1
34.15753;6.5;1.469320409399515e-67;1.0;1
34.15565;6.75;1.467853008838222e-67;1.0;1
34.15471;7.0;1.4671198564242629e-67;1.0;1
34.15547;7.25;1.4677125896869071e-67;1.0;1
34.15894;7.5;1.4704219193014391e-67;1.0;1
34.15988;7.75;1.4711567164719584e-67;1.0;1
34.157;8.0;1.4689065793874221e-67;1.0;1
34.15382;8.25;1.4664260378787305e-67;1.0;1
34.15247;8.5;1.465374240731523e-67;1.0;1
34.15324;8.75;1.4659740624924778e-67;1.0;1
34.15406;9.0;1.4666131028026104e-67;1.0;1
34.15082;9.25;1.4640897320105016e-67;1.0;1
34.15171;9.5;1.4647824487483326e-67;1.0;1
34.15165;9.75;1.4647357384757368e-67;1.0;1
34.15165;10.0;1.4647357384757368e-67;1.0;1
34.15094;10.25;1.4641831129713426e-67;1.0;1
34.14553;10.5;1.4599790815298573e-67;1.0;1
34.14282;10.75;1.4578777055769434e-67;1.0;1
34.14235;11.0;1.4575135671890929e-67;1.0;1
34.13906;11.25;1.454967135613712e-67;1.0;1
34.13618;11.5;1.4527416807418476e-67;1.0;1
34.13253;11.75;1.4499261000399703e-67;1.0;1
34.12859;12.0;1.4468929200251458e-67;1.0;1
34.12518;12.25;1.4442728628711185e-67;1.0;1
34.12371;12.5;1.4431448546486397e-67;1.0;1
34.123;12.75;1.4426003488896391e-67;1.0;1
34.12447;13.0;1.4437279328890127e-67;1.0;1
34.12429;13.25;1.4435898141930308e-67;1.0;1
34.12471;13.5;1.4439121116403841e-67;1.0;1
34.12024;13.75;1.4404856231711047e-67;1.0;1
34.115;14.0;1.4364792075318904e-67;1.0;1
34.10647;14.25;1.429981056385619e-67;1.0;1
34.10235;14.5;1.4268529437865147e-67;1.0;1
34.10264;14.75;1.4270729031447519e-67;1.0;1
34.11549;15.0;1.4368533820405266e-67;1.0;2
34.10516;15.25;1.4289856975845517e-67;1.0;2
34.13672;15.5;1.4531586949280996e-67;1.0;2
34.23371;15.75;1.5300276633408922e-67;1.0;2
34.42622;16.0;1.694811432634791e-67;1.0;2
34.72104;16.25;1.982089073363105e-67;1.0;2
35.12375;16.5;2.4544516306694487e-67;1.0;2
35.61708;16.75;3.188506305408502e-67;1.0;2
36.1925;17.0;4.325200496312826e-67;1.0;2
36.83655;17.25;6.082225732655766e-67;1.0;2
37.54164;17.5;8.830020330021792e-67;1.0;2
38.29774;17.75;1.3162967189323073e-66;1.0;2
39.09878;18.0;2.0081846880499377e-66;1.0;2
39.94421;18.25;3.134314834213948e-66;1.0;2
40.82469;18.5;4.979604339674479e-66;1.0;2
41.7454;18.75;8.074274370714605e-66;1.0;2
42.69183;19.0;1.3259419348367763e-65;1.0;2
43.66753;19.25;2.2091987314734744e-65;1.0;2
44.66731;19.5;3.724122887521531e-65;1.0;2
45.6928;19.75;6.356706955789708e-65;1.0;2
46.74168;20.0;1.0972459737199105e-64;1.0;2
47.8057;20.25;1.9069999098056052e-64;1.0;2
48.88834;20.5;3.342996061829496e-64;1.0;2
49.98967;20.75;5.9108676369584294e-64;1.0;2
51.10446;21.0;1.0512361463377586e-63;1.0;2
52.23305;21.25;1.8807936402727256e-63;1.0;2
53.37523;21.5;3.3846079334715904e-63;1.0;2
54.5253;21.75;6.108209610352618e-63;1.0;2
55.68474;22.0;1.1063077457723021e-62;1.0;2
56.85935;22.25;2.0168233453672496e-62;1.0;2
58.04364;22.5;3.690229277978841e-62;1.0;2
59.23476;22.75;6.7668934058158645e-62;1.0;2
60.43665;23.0;1.2460468143225397e-61;1.0;2
61.64896;23.25;2.3035413632477663e-61;1.0;2
62.86358;23.5;4.2577473644177346e-61;1.0;2
64.0847;23.75;7.884967296604506e-61;1.0;2
65.30787;24.0;1.4597367987857236e-60;1.0;2
66.53528;24.25;2.704445101872791e-60;1.0;2
67.76738;24.5;5.015363100880402e-60;1.0;2
69.00398;24.75;9.308915103322715e-60;1.0;2
70.24448;25.0;1.7287481059286634e-59;1.0;2
71.48621;25.25;3.2078784586529523e-59;1.0;2
72.72937;25.5;5.948382761424277e-59;1.0;2
73.97395;25.75;1.10222548814083e-58;1.0;2
75.22398;26.0;2.045007035614896e-58;1.0;2
76.46965;26.25;3.7806338855042875e-58;1.0;2
77.71669;26.5;6.984088066972861e-58;1.0;2
78.96561;26.75;1.2895454395840734e-57;1.0;2
80.21691;27.0;2.380394286997294e-57;1.0;2
81.47146;27.25;4.394680857181681e-57;1.0;2
82.72618;27.5;8.102437499253018e-57;1.0;2
83.9838;27.75;1.493790602036801e-56;1.0;2
85.24469;28.0;2.754374406565533e-56;1.0;2
86.50762;28.25;5.076357826234055e-56;1.0;2
87.77336;28.5;9.354826088742176e-56;1.0;2
89.03755;28.75;1.7201170669618203e-55;1.0;2
90.30329;29.0;3.160586927862625e-55;1.0;2
91.5698;29.25;5.800966447436418e-55;1.0;2
92.84121;29.5;1.0656425941744745e-54;1.0;2
94.11325;29.75;1.9552855498611676e-54;1.0;2
95.38379;30.0;3.579772956723473e-54;1.0;2
96.65528;30.25;6.547180697303287e-54;1.0;2
97.92917;30.5;1.1970249197972268e-53;1.0;2
99.20502;30.75;2.1872994873175543e-53;1.0;2
100.48187;31.0;3.992732919581693e-53;1.0;2
101.76103;31.25;7.285424212096201e-53;1.0;2
103.0401;31.5;1.327303586412005e-52;1.0;2
104.31801;31.75;2.413234640216047e-52;1.0;2
105.59486;32.0;4.378896724605517e-52;1.0;2
106.87277;32.25;7.93771242194265e-52;1.0;2
108.14964;32.5;1.4360415069095743e-51;1.0;2
109.42405;32.75;2.5911701484444478e-51;1.0;2
110.69828;33.0;4.6681282028470474e-51;1.0;2
111.97273;33.25;8.39822958335419e-51;1.0;2
113.24768;33.5;1.5089898635009123e-50;1.0;2
114.5243;33.75;2.709383062014743e-50;1.0;2
115.79992;34.0;4.855208489691064e-50;1.0;2
117.07061;34.25;8.668076839408742e-50;1.0;2
118.34429;34.5;1.5473387022847366e-49;1.0;2
119.61531;34.75;2.754730859443381e-49;1.0;2
120.88649;35.0;4.897357133655669e-49;1.0;2
122.16033;35.25;8.704072314078061e-49;1.0;2
123.43437;35.5;1.5448162054445703e-48;1.0;2
124.70811;35.75;2.737329316639884e-48;1.0;2
125.98445;36.0;4.848831573325188e-48;1.0;2
127.25882;36.25;8.568748604710192e-48;1.0;2
128.53598;36.5;1.513878314746593e-47;1.0;2
129.81523;36.75;2.6731209353472184e-47;1.0;2
131.09562;37.0;4.715355928669921e-47;1.0;2
132.37539;37.25;8.303082651405542e-47;1.0;2
133.6561;37.5;1.4604696508943458e-46;1.0;2
134.93464;37.75;2.562591537862271e-46;1.0;2
136.21274;38.0;4.4888213045807984e-46;1.0;2
137.49378;38.25;7.861279540675591e-46;1.0;2
138.77313;38.5;1.3736675349889823e-45;1.0;2
140.05453;38.75;2.398865033780814e-45;1.0;2
141.33595;39.0;4.1829302525372364e-45;1.0;2
142.61859;39.25;7.286705955293986e-45;1.0;2
143.90183;39.5;1.2677679470955317e-44;1.0;2
145.18944;39.75;2.206525580574413e-44;1.0;2
146.47718;40.0;3.8348014603510663e-44;1.0;2
147.76393;40.25;6.651711627378716e-44;1.0;2
149.05209;40.5;1.1527267199272462e-43;1.0;2
150.3408;40.75;1.9950822137033964e-43;1.0;2
151.62972;41.0;3.4480478616440862e-43;1.0;2
152.91426;41.25;5.939103071780569e-43;1.0;2
154.20148;41.5;1.0225928006009917e-42;1.0;2
155.49062;41.75;1.7594463562344286e-42;1.0;2
156.77878;42.0;3.021411489371605e-42;1.0;2
158.06561;42.25;5.1777638498574193e-42;1.0;2
159.35196;42.5;8.857864436114951e-42;1.0;2
160.63758;42.75;1.512606131950211e-41;1.0;2
161.92341;43.0;2.5793070197289345e-41;1.0;2
163.2086;43.25;4.3904364258724116e-41;1.0;2
164.4928;43.5;7.458957877129236e-41;1.0;2
165.78154;43.75;1.2676602057837838e-40;1.0;2
167.06936;44.0;2.1503205502901644e-40;1.0;2
168.34977;44.25;3.631023139166347e-40;1.0;2
169.63009;44.5;6.121907704299015e-40;1.0;2
170.91554;44.75;1.0327555959631792e-39;1.0;2
172.19972;45.0;1.7387120294292694e-39;1.0;2
173.48406;45.25;2.9230069854406006e-39;1.0;2
174.77172;45.5;4.9131106427227724e-39;1.0;2
176.05543;45.75;8.232560188529292e-39;1.0;2
177.33935;46.0;1.3775085561485478e-38;1.0;2
178.6242;46.25;2.3022856727574808e-38;1.0;2
179.90738;46.5;3.8395365714634065e-38;1.0;2
181.18829;46.75;6.387813880421049e-38;1.0;2
182.47006;47.0;1.0615020432963087e-37;1.0;2
183.75097;47.25;1.760713000820984e-37;1.0;2
185.03425;47.5;2.918827870608363e-37;1.0;2
186.31782;47.75;4.831953333084898e-37;1.0;2
187.59983;48.0;7.982092639937607e-37;1.0;2
188.88373;48.25;1.3175799294542313e-36;1.0;2
190.16923;48.5;2.172958911785345e-36;1.0;2
191.45527;48.75;3.5789826535181085e-36;1.0;2
192.74072;49.0;5.884517140567918e-36;1.0;2
194.02732;49.25;9.664894439218145e-36;1.0;2
195.31354;49.5;1.5847530591819177e-35;1.0;2
196.59608;49.75;2.590934205739905e-35;1.0;2
197.87824;50.0;4.2289632216957156e-35;1.0;2
199.16401;50.25;6.901664535543187e-35;1.0;2
200.44764;50.5;1.1237346758917078e-34;1.0;2
201.73136;50.75;1.8269770156194731e-34;1.0;2
203.01783;51.0;2.968909302576571e-34;1.0;2
204.30347;51.25;4.815784633370627e-34;1.0;2
205.58928;51.5;7.800229230051917e-34;1.0;2
206.87537;51.75;1.2616399430652476e-33;1.0;2
208.15991;52.0;2.0363624433864218e-33;1.0;2
209.44345;52.25;3.280630294121123e-33;1.0;2
210.72681;52.5;5.2768564457859515e-33;1.0;2
212.01088;52.75;8.477187477610827e-33;1.0;2
213.2936;53.0;1.3591175603114577e-32;1.0;2
214.5738;53.25;2.1737368002327276e-32;1.0;2
215.85693;53.5;3.475117723555449e-32;1.0;2
217.1376;53.75;5.542279411866336e-32;1.0;2
218.41693;54.0;8.821528361513261e-32;1.0;2
219.69612;54.25;1.4019297240571918e-31;1.0;2
220.97422;54.5;2.2237562059527343e-31;1.0;2
222.25371;54.75;3.523831795873965e-31;1.0;2
223.53235;55.0;5.57390816264307e-31;1.0;2
224.81021;55.25;8.801024618451052e-31;1.0;2
226.09061;55.5;1.3888313154302144e-30;1.0;2
227.36843;55.75;2.1863335325838174e-30;1.0;2
228.64768;56.0;3.4383753641307005e-30;1.0;2
229.92791;56.25;5.401185617707126e-30;1.0;2
231.20642;56.5;8.466633863109562e-30;1.0;2
232.48561;56.75;1.325517841241952e-29;1.0;2
233.76529;57.0;2.0724482242452548e-29;1.0;2
235.04474;57.25;3.235159585675211e-29;1.0;2
236.32303;57.5;5.040598546051524e-29;1.0;2
237.60062;57.75;7.839955815240237e-29;1.0;2
238.87774;58.0;1.217378566220152e-28;1.0;2
240.15528;58.25;1.8877802500110636e-28;1.0;2
241.43348;58.5;2.9236538031304967e-28;1.0;2
242.71028;58.75;4.519012745721698e-28;1.0;2
243.98549;59.0;6.9707327979699465e-28;1.0;2
245.26213;59.25;1.0741785121021834e-27;1.0;2
246.53866;59.5;1.6527611526927712e-27;1.0;2
247.81596;59.75;2.5398486914146257e-27;1.0;2
249.09604;60.0;3.9008624330264786e-27;1.0;2
250.37415;60.25;5.9782813279846234e-27;1.0;2
251.65413;60.5;9.154025783940737e-27;1.0;2
252.93088;60.75;1.3980791456671178e-26;1.0;2
254.20527;61.0;2.130417949932341e-26;1.0;2
255.48188;61.25;3.2439103369546695e-26;1.0;2
256.75935;61.5;4.9334072474840345e-26;1.0;2
258.03566;61.75;7.488787505214542e-26;1.0;2
259.31061;62.0;1.1345822279538844e-25;1.0;2
260.5913;62.25;1.7195776512267553e-25;1.0;2
261.86723;62.5;2.5982900947484867e-25;1.0;2
263.14207;62.75;3.9188045124046476e-25;1.0;2
264.4204;63.0;5.908251961723633e-25;1.0;2
265.69965;63.25;8.896968029471401e-25;1.0;2
266.97776;63.5;1.33726213124331e-24;1.0;2
268.25613;63.75;2.007137293969247e-24;1.0;2
269.53536;64.0;3.0088847441292456e-24;1.0;2
270.812;64.25;4.500171689513571e-24;1.0;2
272.08608;64.5;6.715149783192238e-24;1.0;2
273.35924;64.75;1.0002574898789425e-23;1.0;2
274.63184;65.0;1.487467428740371e-23;1.0;2
275.90614;65.25;2.2098756956087383e-23;1.0;2
277.18125;65.5;3.2790721562393554e-23;1.0;2
278.45575;65.75;4.8574220406314655e-23;1.0;2
279.72908;66.0;7.1822217892125e-23;1.0;2
281.00597;66.25;1.0615464986178298e-22;1.0;2
282.28424;66.5;1.5673031892394174e-22;1.0;2
283.55969;66.75;2.308585213752467e-22;1.0;2
284.83607;67.0;3.396359469242625e-22;1.0;2
286.11123;67.25;4.987398029754043e-22;1.0;2
287.38776;67.5;7.315867783983415e-22;1.0;2
288.66564;67.75;1.0719744321522355e-21;1.0;2
289.93998;68.0;1.5667385212461407e-21;1.0;2
291.21275;68.25;2.28539251976884e-21;1.0;2
292.48485;68.5;3.3280888411542756e-21;1.0;2
293.75679;68.75;4.8391036256231315e-21;1.0;2
295.03095;69.0;7.030293645055833e-21;1.0;2
296.30732;69.25;1.0205067906748168e-20;1.0;2
297.58201;69.5;1.4784225295722956e-20;1.0;2
298.8559;69.75;2.1381319733360225e-20;1.0;2
300.12904;70.0;3.0869612210657e-20;1.0;2
301.40185;70.25;4.44981552698631e-20;1.0;2
302.67501;70.5;6.405482328491568e-20;1.0;2
303.94703;70.75;9.203989383260734e-20;1.0;2
305.21803;71.0;1.3201744171179817e-19;1.0;2
306.48649;71.25;1.8894386774949145e-19;1.0;2
307.75531;71.5;2.7004627860671137e-19;1.0;2
309.02802;71.75;3.8581206037055466e-19;1.0;2
310.29853;72.0;5.500509781467833e-19;1.0;2
311.56769;72.25;7.827541193441992e-19;1.0;2
312.83753;72.5;1.1124708634707045e-18;1.0;2
314.10683;72.75;1.578505190226407e-18;1.0;2
315.37299;73.0;2.2345443996742572e-18;1.0;2
316.64198;73.25;3.161036459583297e-18;1.0;2
317.91197;73.5;4.466295240112581e-18;1.0;2
319.1809;73.75;6.2994016997652876e-18;1.0;2
320.44907;74.0;8.869963195451867e-18;1.0;2
321.7193;74.25;1.2477985477588401e-17;1.0;2
322.98787;74.5;1.7519951080036244e-17;1.0;2
324.25798;74.75;2.4573042948824334e-17;1.0;2
325.52625;75.0;3.4397894244004617e-17;1.0;2
326.7946;75.25;4.8081068369172605e-17;1.0;2
328.06304;75.5;6.710991899116085e-17;1.0;2
329.33185;75.75;9.35408455545797e-17;1.0;2
330.59915;76.0;1.3013826694574176e-16;1.0;2
331.86755;76.25;1.8083960385280284e-16;1.0;2
333.13933;76.5;2.51142568137046e-16;1.0;2
334.40904;76.75;3.4807527504891183e-16;1.0;2
335.67245;77.0;4.809347605752758e-16;1.0;2
336.93544;77.25;6.63464782367658e-16;1.0;2
338.20055;77.5;9.144248692504229e-16;1.0;2
339.46693;77.75;1.2588687667896044e-15;1.0;2
340.73428;78.0;1.730934295454982e-15;1.0;2
342.00115;78.25;2.3762372478292944e-15;1.0;2
343.26709;78.5;3.256569071081276e-15;1.0;2
344.53291;78.75;4.456361724185345e-15;1.0;2
345.80069;79.0;6.092179217230137e-15;1.0;2
347.06785;79.25;8.314950009708208e-15;1.0;2
348.3319;79.5;1.1323448777861867e-14;1.0;2
349.59639;79.75;1.5399569595101992e-14;1.0;2
350.86188;80.0;2.09173797368298e-14;1.0;2
352.1271;80.25;2.836878852102286e-14;1.0;2
353.39172;80.5;3.8412736843454425e-14;1.0;2
354.65781;80.75;5.1954775691430305e-14;1.0;2
355.92307;81.0;7.015404650761283e-14;1.0;2
357.18959;81.25;9.461764338542125e-14;1.0;2
358.45673;81.5;1.2744318148417133e-13;1.0;2
359.7225;81.75;1.713497972511201e-13;1.0;2
360.98529;82.0;2.298861729909646e-13;1.0;2
362.2481;82.25;3.079709914221344e-13;1.0;2
363.51337;82.5;4.1220949421186625e-13;1.0;2
364.77634;82.75;5.506313858044328e-13;1.0;2
366.03935;83.0;7.344688892525434e-13;1.0;2
367.30312;83.25;9.784216106399017e-13;1.0;2
368.56488;83.5;1.3009086419245059e-12;1.0;2
369.82594;83.75;1.7268959978833082e-12;1.0;2
371.08644;84.0;2.288752305787102e-12;1.0;2
372.3491;84.25;3.030451991592677e-12;1.0;2
373.6113;84.5;4.006247585260205e-12;1.0;2
374.87039;84.75;5.284915984696177e-12;1.0;2
376.13427;85.0;6.968861929453267e-12;1.0;2
377.3972;85.25;9.174040661308414e-12;1.0;2
378.65996;85.5;1.2058938365759134e-11;1.0;2
379.92084;85.75;1.582150679020533e-11;1.0;2
381.17904;86.0;2.0715983696119646e-11;1.0;2
382.43822;86.25;2.7090936599171735e-11;1.0;2
383.69957;86.5;3.5392477901465214e-11;1.0;2
384.95855;86.75;4.614755817988831e-11;1.0;2
386.2178;87.0;6.008699898926932e-11;1.0;2
387.47842;87.25;7.814572700408165e-11;1.0;2
388.73801;87.5;1.0146245411825763e-10;1.0;2
389.99809;87.75;1.3155826727358373e-10;1.0;2
391.25439;88.0;1.7020165065841506e-10;1.0;2
392.51012;88.25;2.1985243179392918e-10;1.0;2
393.77304;88.5;2.8398975405738707e-10;1.0;2
395.0354;88.75;3.662610737736467e-10;1.0;2
396.29712;89.0;4.716170024378812e-10;1.0;2
397.55643;89.25;6.061037957556484e-10;1.0;2
398.81709;89.5;7.780178004941069e-10;1.0;2
400.07888;89.75;9.974617548300878e-10;1.0;2
401.33978;90.0;1.2767158005013755e-9;1.0;2
402.59868;90.25;1.6311401560432881e-9;1.0;2
403.85839;90.5;2.0812573076936167e-9;1.0;2
405.11936;90.75;2.6523691789957714e-9;1.0;2
406.37907;91.0;3.3744687913731426e-9;1.0;2
407.63825;91.25;4.286492321906677e-9;1.0;2
408.90137;91.5;5.441142952185934e-9;1.0;2
410.15997;91.75;6.890905715670703e-9;1.0;2
411.41797;92.0;8.713325260249144e-9;1.0;2
412.67616;92.25;1.100214324515903e-8;1.0;2
413.93518;92.5;1.387417516444752e-8;1.0;2
415.19164;92.75;1.7462388129314574e-8;1.0;2
416.4495;93.0;2.1952419907408812e-8;1.0;2
417.70611;93.25;2.755078563232783e-8;1.0;2
418.9638;93.5;3.453356726057973e-8;1.0;2
420.22125;93.75;4.322163266995201e-8;1.0;2
421.47783;94.0;5.4008879599631546e-8;1.0;2
422.7334;94.25;6.737892398576957e-8;1.0;2
423.98984;94.5;8.395021526725355e-8;1.0;2
425.24798;94.75;1.0447672614492735e-7;1.0;2
426.50623;95.0;1.2983622534985565e-7;1.0;2
427.76242;95.25;1.6106066636391407e-7;1.0;2
429.01907;95.5;1.9952133494188796e-7;1.0;2
430.27473;95.75;2.467678175910483e-7;1.0;2
431.53449;96.0;3.0497120906341836e-7;1.0;2
432.79547;96.25;3.764315814003035e-7;1.0;2
434.05343;96.5;4.6372881660511497e-7;1.0;2
435.31265;96.75;5.705614654186798e-7;1.0;2
436.57329;97.0;7.011493521741363e-7;1.0;2
437.83529;97.25;8.605617398567514e-7;1.0;2
439.09275;97.5;1.0539096109924618e-6;1.0;2
440.3477;97.75;1.2883145808053204e-6;1.0;2
441.60436;98.0;1.5730103959479075e-6;1.0;2
442.85881;98.25;1.917177270853795e-6;1.0;2
444.11734;98.5;2.334766350279025e-6;1.0;2
445.37682;98.75;2.8396083054997683e-6;1.0;2
446.63769;99.0;3.4493340052548122e-6;1.0;2
447.8979;99.25;4.183463319337646e-6;1.0;2
449.15915;99.5;5.067261816070788e-6;1.0;2
450.41896;99.75;6.127509830743e-6;1.0;2
451.67637;100.0;7.396188894300333e-6;1.0;2
452.93349;100.25;8.914242271171542e-6;1.0;2
454.18906;100.5;1.0725892770538889e-5;1.0;2
455.4418;100.75;1.2881795939204622e-5;1.0;2
456.69625;101.0;1.5452630942845286e-5;1.0;2
457.9502;101.25;1.8508506466886214e-5;1.0;2
459.20187;101.5;2.2129626098372648e-5;1.0;2
460.45538;101.75;2.6428121941507705e-5;1.0;2
461.71293;102.0;3.153399211223664e-5;1.0;2
462.96792;102.25;3.7558506511753095e-5;1.0;2
464.22181;102.5;4.4662749582750085e-5;1.0;2
465.4741;102.75;5.30227682216525e-5;1.0;2
466.72711;103.0;6.286339730301824e-5;1.0;2
467.97989;103.25;7.442097988582067e-5;1.0;2
469.23256;103.5;8.797560894387724e-5;1.0;2
470.48607;103.75;0.00010386114447709445;1.0;2
471.73886;104.0;0.0001224272357552702;1.0;2
472.99183;104.25;0.00014410824076781337;1.0;2
474.24319;104.5;0.00016935005021639137;1.0;2
475.4947;104.75;0.00019873175275565352;1.0;2
476.74682;105.0;0.00023289469005381954;1.0;2
477.9978;105.25;0.0002724999402289919;1.0;2
479.24884;105.5;0.0003183860053666504;1.0;2
480.50127;105.75;0.00037152926956808335;1.0;2
481.75305;106.0;0.0004328863125990159;1.0;2
483.00552;106.25;0.0005036947918989289;1.0;2
484.25633;106.5;0.0005851283342549501;1.0;2
485.50699;106.75;0.0006787420897091914;1.0;2
486.76037;107.0;0.0007864559555899875;1.0;2
488.01307;107.25;0.0009098817402469571;1.0;2
489.26592;107.5;0.0010511840367556078;1.0;2
490.51994;107.75;0.0012128466217308804;1.0;2
491.77211;108.0;0.001397066945202894;1.0;2
493.02381;108.25;0.0016068752997564764;1.0;2
494.27758;108.5;0.0018459624687105468;1.0;2
495.53053;108.75;0.002117383385313434;1.0;2
496.78162;109.0;0.0024247369410574614;1.0;2
498.03446;109.25;0.0027732446748234434;1.0;2
499.28728;109.5;0.003167280197695093;1.0;2
500.54115;109.75;0.0036125014559705085;1.0;2
501.7957;110.0;0.004114666811832281;1.0;2
503.04837;110.25;0.0046789883623906915;1.0;2
504.30081;110.5;0.005312941137925163;1.0;2
505.55352;110.75;0.006024288919936588;1.0;2
506.80422;111.0;0.006819716264119391;1.0;2
508.05466;111.25;0.007708921152460686;1.0;2
509.30698;111.5;0.008703172040804728;1.0;2
510.56153;111.75;0.00981363392557196;1.0;2
511.79767;112.0;0.011030735941363197;1.0;2
513.03393;112.25;0.012381582409440749;1.0;2
514.31439;112.5;0.013934798194158141;1.0;2
515.60267;112.75;0.015670415047594637;1.0;2
516.89114;113.0;0.017595739380289604;1.0;2
518.17694;113.25;0.01972295313420694;1.0;2
519.45943;113.5;0.022067527771443007;1.0;2
520.74009;113.75;0.024649775429763383;1.0;2
522.02135;114.0;0.02749425329550048;1.0;2
523.31841;114.25;0.030661305826565805;1.0;2
524.65846;114.5;0.03426145999192741;1.0;2
526.02518;114.75;0.03830406968304479;1.0;2
527.4373;115.0;0.04290546298737906;1.0;2
528.91427;115.25;0.04821633145150649;1.0;2
530.34023;115.5;0.05386443022286218;1.0;2
531.69136;115.75;0.05972266253736832;1.0;2
532.99981;116.0;0.0658973292895779;1.0;2
534.27673;116.25;0.07242862520604207;1.0;2
535.53155;116.5;0.07936161594041581;1.0;2
536.76971;116.75;0.08673008426640703;1.0;2
537.99608;117.0;0.0945716026378033;1.0;2
539.21808;117.25;0.1029491420244184;1.0;2
540.43685;117.5;0.11189112698266707;1.0;2
541.65391;117.75;0.1214306181089769;1.0;2
542.87079;118.0;0.13160319899102108;1.0;2
544.08577;118.25;0.1424172172432584;1.0;2
545.2994;118.5;0.1538984463925664;1.0;2
546.51408;118.75;0.16609190670307764;1.0;2
547.73081;119.0;0.17903181532446805;1.0;2
548.94731;119.25;0.1927156990695241;1.0;2
550.16303;119.5;0.20715498098355278;1.0;2
551.38091;119.75;0.22240264746646354;1.0;2
552.60092;120.0;0.23847723909409158;1.0;2
553.823;120.25;0.2553946407051886;1.0;2
555.04616;120.5;0.27315432271330875;1.0;2
556.2706;120.75;0.2917688212170224;1.0;2
557.49705;121.0;0.31125680435777625;1.0;2
558.72281;121.25;0.3315776243016355;1.0;2
559.94718;121.5;0.35271489511381093;1.0;2
561.17195;121.75;0.3746921282746836;1.0;2
562.39775;122.0;0.397511759166323;1.0;2
563.62401;122.25;0.42115019390426356;1.0;2
564.8499;122.5;0.4455727233929116;1.0;2
566.07719;122.75;0.47079229858113786;1.0;2
567.30459;123.0;0.4967558912832432;1.0;2
568.53556;123.25;0.5235071880602695;1.0;2
569.76588;123.5;0.5509192952987437;1.0;2
570.99541;123.75;0.5789453412027753;1.0;2
572.22268;124.0;0.6075022100033809;1.0;2
573.45063;124.25;0.6366051228255399;1.0;2
574.68457;124.5;0.666326904956764;1.0;2
575.91688;124.75;0.6964243412620548;1.0;2
577.14862;125.0;0.7268554120125301;1.0;2
578.38872;125.25;0.7577719586974981;1.0;2
579.63101;125.5;0.7889466684568448;1.0;2
580.8682;125.75;0.820115053193396;1.0;2
582.1069;126.0;0.8513585438210777;1.0;2
583.34579;126.25;0.8825559213434311;1.0;2
584.58099;126.5;0.9135190771254339;1.0;2
585.81596;126.75;0.9442424115587361;1.0;2
587.05229;127.0;0.9746698727836848;1.0;2
588.2876;127.25;1.0046457963621125;1.0;2
589.52354;127.5;1.0341121726880294;1.0;2
590.7589;127.75;1.0629412244731542;1.0;2
591.99843;128.0;1.0911414129448516;1.0;2
593.23967;128.25;1.1185517999409322;1.0;2
594.48051;128.5;1.1450254769453216;1.0;2
595.72253;128.75;1.170497644237345;1.0;2
596.96414;129.0;1.1948392493069524;1.0;2
598.20708;129.25;1.217990228591696;1.0;2
599.45067;129.5;1.2398452648566136;1.0;2
600.69309;129.75;1.260287454355272;1.0;2
601.93552;130.0;1.279256951492313;1.0;2
603.17808;130.25;1.2966791518600609;1.0;2
604.42145;130.5;1.3124910754226853;1.0;2
605.66623;130.75;1.3266310894437643;1.0;2
606.90861;131.0;1.3389996196437561;1.0;2
608.15011;131.25;1.3495673754341735;1.0;2
609.39333;131.5;1.3583104759737623;1.0;2
610.63595;131.75;1.3651734307855556;1.0;2
611.87783;132.0;1.3701296018941782;1.0;2
613.12313;132.25;1.3731683986739438;1.0;2
614.36584;132.5;1.3742603632702317;1.0;2
615.6071;132.75;1.3734113236017698;1.0;2
616.8482;133.0;1.3706277597485619;1.0;2
618.08904;133.25;1.3659226345801072;1.0;2
619.3303;133.5;1.3593128476656038;1.0;2
620.57247;133.75;1.3508205737135621;1.0;2
621.81521;134.0;1.3404804500783456;1.0;2
623.05379;134.25;1.328382775818256;1.0;2
624.29356;134.5;1.3145318452844261;1.0;2
625.534;134.75;1.2989865239203766;1.0;2
626.77557;135.0;1.281800951020349;1.0;2
628.01476;135.25;1.2630955941115856;1.0;2
629.25352;135.5;1.2429211270088705;1.0;2
630.49168;135.75;1.2213618772009744;1.0;2
631.72643;136.0;1.1985572867150232;1.0;2
632.96171;136.25;1.1745266736125235;1.0;2
634.19639;136.5;1.1493828705389983;1.0;2
635.43054;136.75;1.1232194244880214;1.0;2
636.6665;137.0;1.0960809631975512;1.0;2
637.90129;137.25;1.0681295944343758;1.0;2
639.13785;137.5;1.0393968375370441;1.0;2
640.37426;137.75;1.0100250781792897;1.0;2
641.61084;138.0;0.9801059132284098;1.0;2
642.84821;138.25;0.9497224231364628;1.0;2
644.08657;138.5;0.9189664998637364;1.0;2
645.32256;138.75;0.8880180298314025;1.0;2
646.55795;139.0;0.8569271216574418;1.0;2
647.79259;139.25;0.8257885727955511;1.0;2
649.02743;139.5;0.7946662361396511;1.0;2
650.26134;139.75;0.7636728842220902;1.0;2
651.49313;140.0;0.7329183648935258;1.0;2
652.72526;140.25;0.7024171709057137;1.0;2
653.95775;140.5;0.6722411641617865;1.0;2
655.18763;140.75;0.642529631235742;1.0;2
656.4166;141.0;0.6133025091973051;1.0;2
657.64601;141.25;0.5845854213625232;1.0;2
658.87412;141.5;0.556471574331673;1.0;2
660.10143;141.75;0.5289962314494575;1.0;2
661.33029;142.0;0.5021507379873781;1.0;2
662.55916;142.25;0.4760085659234041;1.0;2
663.78665;142.5;0.4506317988064153;1.0;2
665.017;142.75;0.42596315355355424;1.0;2
666.24737;143.0;0.4020866834825189;1.0;2
667.4744;143.25;0.3790841742443438;1.0;2
668.70292;143.5;0.3568786558753395;1.0;2
669.93097;143.75;0.3355177710267146;1.0;2
671.15414;144.0;0.3150798922479935;1.0;2
672.37582;144.25;0.295505155005499;1.0;2
673.59741;144.5;0.2767692762263423;1.0;2
674.8184;144.75;0.25887583773899875;1.0;2
676.03891;145.0;0.24181537656844396;1.0;2
677.25819;145.25;0.22558722656527838;1.0;2
678.47688;145.5;0.2101690593287679;1.0;2
679.69699;145.75;0.19552190801405056;1.0;2
680.91548;146.0;0.1816656254197057;1.0;2
682.13134;146.25;0.16858942324520693;1.0;2
683.34619;146.5;0.15625270420607532;1.0;2
684.55985;146.75;0.1446341657214945;1.0;2
685.77544;147.0;0.13368219906190978;1.0;2
686.98574;147.25;0.1234358034085736;1.0;2
688.19631;147.5;0.11381988135962198;1.0;2
689.40668;147.75;0.10481372293971726;1.0;2
690.61771;148.0;0.096386327880965;1.0;2
691.83061;148.25;0.08850581203925567;1.0;2
693.04255;148.5;0.08116578436588384;1.0;2
694.25602;148.75;0.07432610423180244;1.0;2
695.47319;149.0;0.06795239599052387;1.0;2
696.69398;149.25;0.06202409647438438;1.0;2
697.91586;149.5;0.05653105854299079;1.0;2
699.14164;149.75;0.051438527693975916;1.0;2
700.37065;150.0;0.046728504003506144;1.0;2
701.60075;150.25;0.042387384265567964;1.0;2
702.83051;150.5;0.0383973652031911;1.0;2
704.06034;150.75;0.034734590521538496;1.0;2
705.29073;151.0;0.03137625343951041;1.0;2
706.52578;151.25;0.028292226985750114;1.0;2
707.76142;151.5;0.025474433978118233;1.0;2
708.99947;151.75;0.0229004485810353;1.0;2
710.23597;152.0;0.020560459027457866;1.0;2
711.47132;152.25;0.01843562403242468;1.0;2
712.7091;152.5;0.016503682623965944;1.0;2
713.94498;152.75;0.014756034429689705;1.0;2
715.18051;153.0;0.013175433876871838;1.0;2
716.41598;153.25;0.01174776942610798;1.0;2
717.64937;153.5;0.010462227033541044;1.0;2
718.88539;153.75;0.009302046294074716;1.0;2
720.12085;154.0;0.008259403815140823;1.0;2
721.3571;154.25;0.007322816717164597;1.0;2
722.59216;154.5;0.006484117884051119;1.0;2
723.82674;154.75;0.0057337370831454515;1.0;2
725.06143;155.0;0.00506306531106033;1.0;2
726.29598;155.25;0.00446466756587694;1.0;2
727.53204;155.5;0.003930886930822665;1.0;2
728.76945;155.75;0.0034555951191470374;1.0;2
730.00617;156.0;0.003033736167912137;1.0;2
731.24206;156.25;0.0026598855266888343;1.0;2
732.47824;156.5;0.0023287716337315563;1.0;2
733.71248;156.75;0.002036456071543387;1.0;2
734.95014;157.0;0.001777678881844058;1.0;2
736.18665;157.25;0.0015498082329433792;1.0;2
737.42311;157.5;0.0013492638508328606;1.0;2
738.66134;157.75;0.0011727899198821857;1.0;2
739.89823;158.0;0.0010181237436447709;1.0;2
741.13524;158.25;0.0008826048522779585;1.0;2
742.37096;158.5;0.0007641683251855431;1.0;2
743.60685;158.75;0.0006606867867912399;1.0;2
744.84184;159.0;0.0005704811875272077;1.0;2
746.0747;159.25;0.0004920303352374528;1.0;2
747.30754;159.5;0.00042377847928618006;1.0;2
748.54211;159.75;0.000364408977789819;1.0;2
749.77401;160.0;0.0003130233243148761;1.0;2
751.00673;160.25;0.00026848259629998764;1.0;2
752.24085;160.5;0.0002299187499103458;1.0;2
753.47352;160.75;0.00019665591007199035;1.0;2
754.70893;161.0;0.00016791223370819902;1.0;2
755.94445;161.25;0.0001431674832437862;1.0;2
757.17855;161.5;0.0001219213781262091;1.0;2
758.41213;161.75;0.00010369058095840736;1.0;2
759.64654;162.0;8.805327580244447e-5;1.0;2
760.88041;162.25;7.467531624426768e-5;1.0;2
762.11627;162.5;6.322460874643735e-5;1.0;2
763.35118;162.75;5.34618477474364e-5;1.0;2
764.58722;163.0;4.5136480292144756e-5;1.0;2
765.82332;163.25;3.805398037326425e-5;1.0;2
767.05869;163.5;3.2041219229981554e-5;1.0;2
768.29501;163.75;2.6937220737583265e-5;1.0;2
769.53183;164.0;2.2612975062061738e-5;1.0;2
770.76952;164.25;1.8953963680264893e-5;1.0;2
772.00806;164.5;1.5862797295377372e-5;1.0;2
773.24657;164.75;1.3257182246824933e-5;1.0;2
774.48443;165.0;1.1065063577678073e-5;1.0;2
775.72237;165.25;9.222357742195274e-6;1.0;2
776.96229;165.5;7.673481247655239e-6;1.0;2
778.1998;165.75;6.378056419628582e-6;1.0;2
779.43603;166.0;5.294916603128496e-6;1.0;2
780.67127;166.25;4.390231808569642e-6;1.0;2
781.90496;166.5;3.6359014388725288e-6;1.0;2
783.13976;166.75;3.0064699263045044e-6;1.0;2
784.3755;167.0;2.482170406508754e-6;1.0;2
785.60911;167.25;2.0471229500575392e-6;1.0;2
786.84159;167.5;1.6862750935247568e-6;1.0;2
788.07654;167.75;1.3865582324135593e-6;1.0;2
789.31232;168.0;1.1383699619469491e-6;1.0;2
790.54753;168.25;9.33385849390394e-7;1.0;2
791.78212;168.5;7.643210766440676e-7;1.0;2
793.01725;168.75;6.24950779505078e-7;1.0;2
794.25524;169.0;5.10040210997928e-7;1.0;2
795.49293;169.25;4.1569518358628343e-7;1.0;2
796.72949;169.5;3.3839050373148524e-7;1.0;2
797.96624;169.75;2.750674788950334e-7;1.0;2
799.20028;170.0;2.2338349344496295e-7;1.0;2
800.43547;170.25;1.81122365993852e-7;1.0;2
801.67162;170.5;1.4662725852878678e-7;1.0;2
802.90479;170.75;1.185967867353036e-7;1.0;2
804.14132;171.0;9.573543266960073e-8;1.0;2
805.37873;171.25;7.716093062430215e-8;1.0;2
806.61295;171.5;6.213796034483256e-8;1.0;2
807.84551;171.75;4.998484044843078e-8;1.0;2
809.07993;172.0;4.013944181038803e-8;1.0;2
810.31169;172.25;3.220367767556871e-8;1.0;2
811.54371;172.5;2.579976308347054e-8;1.0;2
812.77867;172.75;2.0629573857487828e-8;1.0;2
814.01246;173.0;1.647597116073022e-8;1.0;2
815.24484;173.25;1.3143738458832886e-8;1.0;2
816.47487;173.5;1.0475422017011093e-8;1.0;2
817.70859;173.75;8.331515076193923e-9;1.0;2
818.94354;174.0;6.615626130964535e-9;1.0;2
820.17685;174.25;5.2474159613954875e-9;1.0;2
821.40964;174.5;4.156787353027361e-9;1.0;2
822.64283;174.75;3.288005055762098e-9;1.0;2
823.87678;175.0;2.596802488881935e-9;1.0;2
825.11109;175.25;2.0479037172536218e-9;1.0;2
826.34589;175.5;1.612622947933118e-9;1.0;2
827.57988;175.75;1.268289259352646e-9;1.0;2
828.81525;176.0;9.958190296576953e-10;1.0;2
830.05052;176.25;7.808076324783897e-10;1.0;2
831.28266;176.5;6.117453762861633e-10;1.0;2
832.51802;176.75;4.783151575626796e-10;1.0;2
833.75179;177.0;3.735848459964324e-10;1.0;2
834.98725;177.25;2.9127996893075994e-10;1.0;2
836.22185;177.5;2.2683011469134174e-10;1.0;2
837.45499;177.75;1.764468954226759e-10;1.0;2
838.69067;178.0;1.3699221916632473e-10;1.0;2
839.92695;178.25;1.0619806585969045e-10;1.0;2
841.16239;178.5;8.222523400378386e-11;1.0;2
842.39641;178.75;6.359387116336754e-11;1.0;2
843.63011;179.0;4.911892481129946e-11;1.0;2
844.86589;179.25;3.786922209755003e-11;1.0;2
846.10147;179.5;2.915646638903734e-11;1.0;2
847.33569;179.75;2.2423433905868265e-11;1.0;2
848.56946;180.0;1.7222862590799155e-11;1.0;2
849.80118;180.25;1.3215846602748788e-11;1.0;2
851.03426;180.5;1.0124024353251975e-11;1.0;2
852.2652;180.75;7.748346077914842e-12;1.0;2
853.49962;181.0;5.917403994844178e-12;1.0;2
854.7352;181.25;4.511660752822441e-12;1.0;2
855.96932;181.5;3.4361701206375173e-12;1.0;2
857.20286;181.75;2.6137440572901157e-12;1.0;2
858.43773;182.0;1.9848016905347507e-12;1.0;2
859.67186;182.25;1.5053476349150688e-12;1.0;2
860.90436;182.5;1.140539813267256e-12;1.0;2
862.13858;182.75;8.626018676226691e-13;1.0;2
863.37203;183.0;6.515993717793967e-13;1.0;2
864.60703;183.25;4.91350626445471e-13;1.0;2
865.84215;183.5;3.699846282627401e-13;1.0;2
867.07611;183.75;2.782823153315842e-13;1.0;2
868.31209;184.0;2.0891897365290242e-13;1.0;2
869.54783;184.25;1.566342958639459e-13;1.0;2
870.78276;184.5;1.172927066625797e-13;1.0;2
872.0177;184.75;8.770967688319751e-14;1.0;2
873.2523;185.0;6.550167176064115e-14;1.0;2
874.48665;185.25;4.8851378085669536e-14;1.0;2
875.72051;185.5;3.638698969905767e-14;1.0;2
876.95495;185.75;2.706134024369918e-14;1.0;2
878.1884;186.0;2.010250582539212e-14;1.0;2
879.42137;186.25;1.491408161574274e-14;1.0;2
880.65304;186.5;1.1052888647630135e-14;1.0;2
881.88662;186.75;8.17614270795481e-15;1.0;2
883.12136;187.0;6.037982687143269e-15;1.0;2
884.35346;187.25;4.45566229705952e-15;1.0;2
885.58682;187.5;3.282410793441818e-15;1.0;2
886.82156;187.75;2.4138984812567934e-15;1.0;2
888.055;188.0;1.7732914565372268e-15;1.0;2
889.28855;188.25;1.300840522926725e-15;1.0;2
890.52117;188.5;9.531579076352396e-16;1.0;2
891.75585;188.75;6.970662676943489e-16;1.0;2
892.98619;189.0;5.096332595359047e-16;1.0;2
894.21612;189.25;3.7212167369514933e-16;1.0;2
895.45021;189.5;2.7104753463684895e-16;1.0;2
896.68198;189.75;1.972698071439091e-16;1.0;2
897.91234;190.0;1.4342710869813193e-16;1.0;2
899.14484;190.25;1.040776268676011e-16;1.0;2
900.3779;190.5;7.54076816931734e-17;1.0;2
901.61041;190.75;5.456722095691832e-17;1.0;2
902.84523;191.0;3.94074958865293e-17;1.0;2
904.0798;191.25;2.8421574294272334e-17;1.0;2
905.31537;191.5;2.0464232102654515e-17;1.0;2
906.55047;191.75;1.471601206363899e-17;1.0;2
