#EXPORTTYPE:DATA SINGLE
#FILE:00592013__Al2O3_900_5_N2_20_air_20.ngb-ds1
#FTYPE:ANSI
#IDENTITY:005920
#DECIMAL:POINT
#SEPARATOR:SEMICOLON
#MTYPE:DSC
#PROJECT:
#DATE/TIME:21.07.2025 08:33
#CORR. FILE:005919_bline_Al2O3_900_5_N2_20_air_20.ngb-bs1
#TEMPCAL:TCALZERO.TCX
#SENSITIVITY:SENSZERO.EXX
#LABORATORY: 11
#OPERATOR:
#REMARK:
#SAMPLE:1
#SAMPLE MASS /mg:9.99
#MATERIAL:
#REFERENCE:
#REFERENCE MASS /mg:0
#TYPE OF CRUCIBLE:DSC/TG pan Al2O3
#SAMPLE CRUCIBLE MASS /mg:0
#REFERENCE CRUCIBLE MASS /mg:0
#DSC RANGE /V:5000
#TG RANGE /mg:5000
#TAU-R:---
#CORR. CODE:020
#EXO:+1
#RANGE:35C/00:00/35C/5,0(K/min)/920C/
#SEGMENT:S1-2/2
#SEG. 1:35C/00:15/35C
#SEG. 2:35C/5,0(K/min)/920C

##Temp./C;Time/min;DSC/(uV/mg);Sensit./(uV/mW);Segment
34.17636;0.25;3.5363646335173704e-102;1.0;1
34.17971;0.5;3.547186841269708e-102;1.0;1
34.17888;0.75;3.544502442406136e-102;1.0;1
34.17688;1.0;3.538042335887055e-102;1.0;1
34.17253;1.25;3.5240321419777713e-102;1.0;1
34.17059;1.5;3.5178017807679448e-102;1.0;1
34.16876;1.75;3.5119347621491235e-102;1.0;1
34.16682;2.0;3.505725743031324e-102;1.0;1
34.16441;2.25;3.4980277309579074e-102;1.0;1
34.16576;2.5;3.50233781512127e-102;1.0;1
34.17024;2.75;3.516678917476324e-102;1.0;1
34.16623;3.0;3.5038396062327856e-102;1.0;1
34.16288;3.25;3.493149366950249e-102;1.0;1
34.16018;3.5;3.484557044467925e-102;1.0;1
34.158;3.75;3.477634930523717e-102;1.0;1
34.16165;4.0;3.489232467987628e-102;1.0;1
34.16312;4.25;3.4939141513437964e-102;1.0;1
34.16582;4.5;3.502529497365174e-102;1.0;1
34.16759;4.75;3.508188835415985e-102;1.0;1
34.16271;5.0;3.4926077457424224e-102;1.0;1
34.15965;5.25;3.4828728812792653e-102;1.0;1
34.15641;5.5;3.4725948878907032e-102;1.0;1
34.15535;5.75;3.4692389094483724e-102;1.0;1
34.15588;6.0;3.4709164939313676e-102;1.0;1
34.15641;6.25;3.4725948878907032e-102;1.0;1
34.15753;6.5;3.476144347142858e-102;1.0;1
34.15565;6.75;3.4701883861743126e-102;1.0;1
34.15471;7.0;3.46721422541595e-102;1.0;1
34.15547;7.25;3.4696186690272385e-102;1.0;1
34.15894;7.5;3.4806180109564043e-102;1.0;1
34.15988;7.75;3.4836036447666128e-102;1.0;1
34.157;8.0;3.4744642413104832e-102;1.0;1
34.15382;8.25;3.4644006089727644e-102;1.0;1
34.15247;8.5;3.460137112222477e-102;1.0;1
34.15324;8.75;3.4625682425319454e-102;1.0;1
34.15406;9.0;3.4651591125712916e-102;1.0;1
34.15082;9.25;3.4549332813154434e-102;1.0;1
34.15171;9.5;3.457739225291773e-102;1.0;1
34.15165;9.75;3.4575499890663392e-102;1.0;1
34.15165;10.0;3.4575499890663392e-102;1.0;1
34.15094;10.25;3.455311478274761e-102;1.0;1
34.14553;10.5;3.438302081332876e-102;1.0;1
34.14282;10.75;3.4298130980491796e-102;1.0;1
34.14235;11.0;3.428342968517867e-102;1.0;1
34.13906;11.25;3.4180696531230662e-102;1.0;1
34.13618;11.5;3.409101817430768e-102;1.0;1
34.13253;11.75;3.3977700565924292e-102;1.0;1
34.12859;12.0;3.385580144608052e-102;1.0;1
34.12518;12.25;3.3750652269636057e-102;1.0;1
34.12371;12.5;3.3705424610725084e-102;1.0;1
34.123;12.75;3.3683601623582844e-102;1.0;1
34.12447;13.0;3.372880006195104e-102;1.0;1
34.12429;13.25;3.3723262309337074e-102;1.0;1
34.12471;13.5;3.373618514367231e-102;1.0;1
34.12024;13.75;3.35989024541328e-102;1.0;1
34.115;14.0;3.343868111631177e-102;1.0;1
34.10647;14.25;3.3179491896447156e-102;1.0;1
34.10235;14.5;3.305502215270006e-102;1.0;1
34.10264;14.75;3.3063768107997575e-102;1.0;1
34.11549;15.0;3.345363127618514e-102;1.0;2
34.10516;15.25;3.313986472315265e-102;1.0;2
34.13672;15.5;3.410781496384289e-102;1.0;2
34.23371;15.75;3.726264987604371e-102;1.0;2
34.42622;16.0;4.441294493649199e-102;1.0;2
34.72104;16.25;5.81039465820279e-102;1.0;2
35.12375;16.5;8.38490776968895e-102;1.0;2
35.61708;16.75;1.3136056146849314e-101;1.0;2
36.1925;17.0;2.2163401892894688e-101;1.0;2
36.83655;17.25;3.977396456956944e-101;1.0;2
37.54164;17.5;7.538119629588437e-101;1.0;2
38.29774;17.75;1.4948164406505408e-100;1.0;2
39.09878;18.0;3.083916226057414e-100;1.0;2
39.94421;18.25;6.614670914976787e-100;1.0;2
40.82469;18.5;1.4623995370562219e-99;1.0;2
41.7454;18.75;3.3475420913935076e-99;1.0;2
42.69183;19.0;7.829790320151357e-99;1.0;2
43.66753;19.25;1.876990442971376e-98;1.0;2
44.66731;19.5;4.589673568421582e-98;1.0;2
45.6928;19.75;1.1462641015858733e-97;1.0;2
46.74168;20.0;2.917515129248035e-97;1.0;2
47.8057;20.25;7.511541420554232e-97;1.0;2
48.88834;20.5;1.9621587289798828e-96;1.0;2
49.98967;20.75;5.200061162552431e-96;1.0;2
51.10446;21.0;1.3915569140025573e-95;1.0;2
52.23305;21.25;3.761030384732182e-95;1.0;2
53.37523;21.5;1.0263839893329227e-94;1.0;2
54.5253;21.75;2.81388146568887e-94;1.0;2
55.68474;22.0;7.759527075769653e-94;1.0;2
56.85935;22.25;2.1630616379035575e-93;1.0;2
58.04364;22.5;6.065854082690319e-93;1.0;2
59.23476;22.75;1.7068843718381957e-92;1.0;2
60.43665;23.0;4.8357877337158966e-92;1.0;2
61.64896;23.25;1.378859799466043e-91;1.0;2
62.86358;23.5;3.9291690845846594e-91;1.0;2
64.0847;23.75;1.1229630353540346e-90;1.0;2
65.30787;24.0;3.2065665437475003e-90;1.0;2
66.53528;24.25;9.164990815449576e-90;1.0;2
67.76738;24.5;2.6229819146200717e-89;1.0;2
69.00398;24.75;7.515302969077123e-89;1.0;2
70.24448;25.0;2.1545261639311047e-88;1.0;2
71.48621;25.25;6.16622347112751e-88;1.0;2
72.72937;25.5;1.7620518321817899e-87;1.0;2
73.97395;25.75;5.027386264339296e-87;1.0;2
75.22398;26.0;1.4369922158793091e-86;1.0;2
76.46965;26.25;4.0810705761561654e-86;1.0;2
77.71669;26.5;1.157153276894802e-85;1.0;2
78.96561;26.75;3.277065894385695e-85;1.0;2
80.21691;27.0;9.273246050494603e-85;1.0;2
81.47146;27.25;2.623835690399292e-84;1.0;2
82.72618;27.5;7.404330487620739e-84;1.0;2
83.9838;27.75;2.088599119386031e-83;1.0;2
85.24469;28.0;5.890715185952643e-83;1.0;2
86.50762;28.25;1.6595011482451106e-82;1.0;2
87.77336;28.5;4.6725163375828824e-82;1.0;2
89.03755;28.75;1.3101993531001904e-81;1.0;2
90.30329;29.0;3.6680501025935514e-81;1.0;2
91.5698;29.25;1.0246263964971072e-80;1.0;2
92.84121;29.5;2.865330264300275e-80;1.0;2
94.11325;29.75;7.993824887476426e-80;1.0;2
95.38379;30.0;2.221061275075121e-79;1.0;2
96.65528;30.25;6.158132428864982e-79;1.0;2
97.92917;30.5;1.7057689660761116e-78;1.0;2
99.20502;30.75;4.718618063701277e-78;1.0;2
100.48187;31.0;1.3025547846986074e-77;1.0;2
101.76103;31.25;3.591792625163123e-77;1.0;2
103.0401;31.5;9.874856525017351e-77;1.0;2
104.31801;31.75;2.7045128215400873e-76;1.0;2
105.59486;32.0;7.379442195899702e-76;1.0;2
106.87277;32.25;2.0093614391905985e-75;1.0;2
108.14964;32.5;5.451019109693001e-75;1.0;2
109.42405;32.75;1.4716537262918987e-74;1.0;2
110.69828;33.0;3.961114804629166e-74;1.0;2
111.97273;33.25;1.0632809143519193e-73;1.0;2
113.24768;33.5;2.8470202215712707e-73;1.0;2
114.5243;33.75;7.610870858603684e-73;1.0;2
115.79992;34.0;2.0271471978923408e-72;1.0;2
117.07061;34.25;5.363414465776877e-72;1.0;2
118.34429;34.5;1.4182054825766436e-71;1.0;2
119.61531;34.75;3.731684368285805e-71;1.0;2
120.88649;35.0;9.792069652571962e-71;1.0;2
122.16033;35.25;2.5672475639827263e-70;1.0;2
123.43437;35.5;6.712311097873613e-70;1.0;2
124.70811;35.75;1.7495397297020778e-69;1.0;2
125.98445;36.0;4.555822532261833e-69;1.0;2
127.25882;36.25;1.1811685687853689e-68;1.0;2
128.53598;36.5;3.059871992998925e-68;1.0;2
129.81523;36.75;7.916024450238806e-68;1.0;2
131.09562;37.0;2.0436764455664362e-67;1.0;2
132.37539;37.25;5.258372253254582e-67;1.0;2
133.6561;37.5;1.3499712794657578e-66;1.0;2
134.93464;37.75;3.450159940580791e-66;1.0;2
136.21274;38.0;8.789227526686837e-66;1.0;2
137.49378;38.25;2.237325845934627e-65;1.0;2
138.77313;38.5;5.671610343488945e-65;1.0;2
140.05453;38.75;1.4356963015061112e-64;1.0;2
141.33595;39.0;3.623729354217643e-64;1.0;2
142.61859;39.25;9.127684175295858e-64;1.0;2
143.90183;39.5;2.2934036206086359e-63;1.0;2
145.18944;39.75;5.763463158410603e-63;1.0;2
146.47718;40.0;1.4442591867060118e-62;1.0;2
147.76393;40.25;3.605949467082677e-62;1.0;2
149.05209;40.5;8.985609809636165e-62;1.0;2
150.3408;40.75;2.2333728942667546e-61;1.0;2
151.62972;41.0;5.5354793375647276e-61;1.0;2
152.91426;41.25;1.3637412825128067e-60;1.0;2
154.20148;41.5;3.356187342047519e-60;1.0;2
155.49062;41.75;8.246317860232913e-60;1.0;2
156.77878;42.0;2.0188030439795162e-59;1.0;2
158.06561;42.25;4.923179116098726e-59;1.0;2
159.35196;42.5;1.1966676698494997e-58;1.0;2
160.63758;42.75;2.8987085655464678e-58;1.0;2
161.92341;43.0;7.001971453972097e-58;1.0;2
163.2086;43.25;1.685653675336544e-57;1.0;2
164.4928;43.5;4.0434038686407834e-57;1.0;2
165.78154;43.75;9.700354626401224e-57;1.0;2
167.06936;44.0;2.3188587851292944e-56;1.0;2
168.34977;44.25;5.499360850761169e-56;1.0;2
169.63009;44.5;1.3003389674932785e-55;1.0;2
170.91554;44.75;3.0762645686680495e-55;1.0;2
172.19972;45.0;7.250131510504598e-55;1.0;2
173.48406;45.25;1.7038816789486965e-54;1.0;2
174.77172;45.5;4.001401997744558e-54;1.0;2
176.05543;45.75;9.344837023574614e-54;1.0;2
177.33935;46.0;2.176292952326924e-53;1.0;2
178.6242;46.25;5.0565376848136175e-53;1.0;2
179.90738;46.5;1.1701447943794662e-52;1.0;2
181.18829;46.75;2.6959504396770672e-52;1.0;2
182.47006;47.0;6.196664316577718e-52;1.0;2
183.75097;47.25;1.4193607157815603e-51;1.0;2
185.03425;47.5;3.2465471832630627e-51;1.0;2
186.31782;47.75;7.405568639597945e-51;1.0;2
187.59983;48.0;1.6826297692105366e-50;1.0;2
188.88373;48.25;3.8165493487024003e-50;1.0;2
190.16923;48.5;8.640120889488872e-50;1.0;2
191.45527;48.75;1.950920568527293e-49;1.0;2
192.74072;49.0;4.390555391979111e-49;1.0;2
194.02732;49.25;9.859058725381426e-49;1.0;2
195.31354;49.5;2.2068287821257214e-48;1.0;2
196.59608;49.75;4.913910701891272e-48;1.0;2
197.87824;50.0;1.0907165179254826e-47;1.0;2
199.16401;50.25;2.419331269742893e-47;1.0;2
200.44764;50.5;5.343528983980791e-47;1.0;2
201.73136;50.75;1.1768233685373372e-46;1.0;2
203.01783;51.0;2.5885165168892146e-46;1.0;2
204.30347;51.25;5.674029801380477e-46;1.0;2
205.58928;51.5;1.2402219044909177e-45;1.0;2
206.87537;51.75;2.703352494176877e-45;1.0;2
208.15991;52.0;5.869780027559859e-45;1.0;2
209.44345;52.25;1.27000319715596e-44;1.0;2
210.72681;52.5;2.7394762073965873e-44;1.0;2
212.01088;52.75;5.894415203527077e-44;1.0;2
213.2936;53.0;1.2635472349414143e-43;1.0;2
214.5738;53.25;2.696643330425548e-43;1.0;2
215.85693;53.5;5.748278282865451e-43;1.0;2
217.1376;53.75;1.2199802311548005e-42;1.0;2
218.41693;54.0;2.5796452845374823e-42;1.0;2
219.69612;54.25;5.4383432956179216e-42;1.0;2
220.97422;54.5;1.1424414347776358e-41;1.0;2
222.25371;54.75;2.394898122465245e-41;1.0;2
223.53235;55.0;5.003366814899998e-41;1.0;2
224.81021;55.25;1.0417890315416231e-40;1.0;2
226.09061;55.5;2.16602907681727e-40;1.0;2
227.36843;55.75;4.483784870581387e-40;1.0;2
228.64768;56.0;9.262208168233928e-40;1.0;2
229.92791;56.25;1.9087945538140868e-39;1.0;2
231.20642;56.5;3.918478741676822e-39;1.0;2
232.48561;56.75;8.023749434162253e-39;1.0;2
233.76529;57.0;1.6386673823641563e-38;1.0;2
235.04474;57.25;3.3364373951386826e-38;1.0;2
236.32303;57.5;6.769108564065776e-38;1.0;2
237.60062;57.75;1.3688303609337105e-37;1.0;2
238.87774;58.0;2.759270124317524e-37;1.0;2
240.15528;58.25;5.547246731469483e-37;1.0;2
241.43348;58.5;1.1123841631934952e-36;1.0;2
242.71028;58.75;2.2224922559537035e-36;1.0;2
243.98549;59.0;4.4237803660711355e-36;1.0;2
245.26213;59.25;8.786641910198657e-36;1.0;2
246.53866;59.5;1.7400707441277963e-35;1.0;2
247.81596;59.75;3.437392133716074e-35;1.0;2
249.09604;60.0;6.780620697272249e-35;1.0;2
250.37415;60.25;1.3322692775309113e-34;1.0;2
251.65413;60.5;2.612631642234847e-34;1.0;2
252.93088;60.75;5.099934307255954e-34;1.0;2
254.20527;61.0;9.914194431197451e-34;1.0;2
255.48188;61.25;1.9239530305025555e-33;1.0;2
256.75935;61.5;3.7244691359337296e-33;1.0;2
258.03566;61.75;7.18478878799343e-33;1.0;2
259.31061;62.0;1.3810275987262186e-32;1.0;2
260.5913;62.25;2.654625868966418e-32;1.0;2
261.86723;62.5;5.0756147105525e-32;1.0;2
263.14207;62.75;9.671117107228997e-32;1.0;2
264.4204;63.0;1.8406433306528389e-31;1.0;2
265.69965;63.25;3.494613984420891e-31;1.0;2
266.97776;63.5;6.611763564327629e-31;1.0;2
268.25613;63.75;1.2474656229234885e-30;1.0;2
269.53536;64.0;2.347798219938536e-30;1.0;2
270.812;64.25;4.4002338889056556e-30;1.0;2
272.08608;64.5;8.212731003118896e-30;1.0;2
273.35924;64.75;1.5277428865535144e-29;1.0;2
274.63184;65.0;2.8329713604758117e-29;1.0;2
275.90614;65.25;5.242493933166634e-29;1.0;2
277.18125;65.5;9.677142456039177e-29;1.0;2
278.45575;65.75;1.7806272827005852e-28;1.0;2
279.72908;66.0;3.2651404899172536e-28;1.0;2
281.00597;66.25;5.980098373863157e-28;1.0;2
282.28424;66.5;1.0927892102517982e-27;1.0;2
283.55969;66.75;1.9885106830756034e-27;1.0;2
284.83607;67.0;3.6095256140633934e-27;1.0;2
286.11123;67.25;6.529309928832112e-27;1.0;2
287.38776;67.5;1.178425193604132e-26;1.0;2
288.66564;67.75;2.122004442679773e-26;1.0;2
289.93998;68.0;3.8038715143709747e-26;1.0;2
291.21275;68.25;6.79422738961453e-26;1.0;2
292.48485;68.5;1.2096798452813608e-25;1.0;2
293.75679;68.75;2.1474279695036155e-25;1.0;2
295.03095;69.0;3.8049407793908306e-25;1.0;2
296.30732;69.25;6.728989324393734e-25;1.0;2
297.58201;69.5;1.1856841561238633e-24;1.0;2
298.8559;69.75;2.0824709066599992e-24;1.0;2
300.12904;70.0;3.645788815868852e-24;1.0;2
301.40185;70.25;6.363390011046223e-24;1.0;2
302.67501;70.5;1.1076415728703938e-23;1.0;2
303.94703;70.75;1.9215119236962346e-23;1.0;2
305.21803;71.0;3.322353242164118e-23;1.0;2
306.48649;71.25;5.721741966751427e-23;1.0;2
307.75531;71.5;9.827282046180453e-23;1.0;2
309.02802;71.75;1.6858096528732546e-22;1.0;2
310.29853;72.0;2.8809095634629456e-22;1.0;2
311.56769;72.25;4.906339702405518e-22;1.0;2
312.83753;72.5;8.334188813188651e-22;1.0;2
314.10683;72.75;1.411320037992032e-21;1.0;2
315.37299;73.0;2.380021903094187e-21;1.0;2
316.64198;73.25;4.006823704534913e-21;1.0;2
317.91197;73.5;6.7290148633082554e-21;1.0;2
319.1809;73.75;1.1263402210578509e-20;1.0;2
320.44907;74.0;1.8793606077060034e-20;1.0;2
321.7193;74.25;3.1294323540827595e-20;1.0;2
322.98787;74.5;5.1926230288994795e-20;1.0;2
324.25798;74.75;8.596639867606357e-20;1.0;2
325.52625;75.0;1.4181075843624498e-19;1.0;2
326.7946;75.25;2.3327049428628687e-19;1.0;2
328.06304;75.5;3.82632695616121e-19;1.0;2
329.33185;75.75;6.259256500571181e-19;1.0;2
330.59915;76.0;1.0203914261964778e-18;1.0;2
331.86755;76.25;1.6594033076723371e-18;1.0;2
333.13933;76.5;2.694332698847103e-18;1.0;2
334.40904;76.75;4.358736582970292e-18;1.0;2
335.67245;77.0;7.0144963014132e-18;1.0;2
336.93544;77.25;1.1254608198748462e-17;1.0;2
338.20055;77.5;1.802074535469641e-17;1.0;2
339.46693;77.75;2.878599633314973e-17;1.0;2
340.73428;78.0;4.586743485750972e-17;1.0;2
342.00115;78.25;7.286351353187693e-17;1.0;2
343.26709;78.5;1.1537956785917687e-16;1.0;2
344.53291;78.75;1.8217556056452037e-16;1.0;2
345.80069;79.0;2.870231819088865e-16;1.0;2
347.06785;79.25;4.508226688637219e-16;1.0;2
348.3319;79.5;7.053043873484492e-16;1.0;2
349.59639;79.75;1.1004727382721805e-15;1.0;2
350.86188;80.0;1.7127631316737243e-15;1.0;2
352.1271;80.25;2.6578885396087433e-15;1.0;2
353.39172;80.5;4.11196268534038e-15;1.0;2
354.65781;80.75;6.346633722763044e-15;1.0;2
355.92307;81.0;9.765089183262466e-15;1.0;2
357.18959;81.25;1.4988424445370462e-14;1.0;2
358.45673;81.5;2.2944888498012195e-14;1.0;2
359.7225;81.75;3.500876534445455e-14;1.0;2
360.98529;82.0;5.321101003903715e-14;1.0;2
362.2481;82.25;8.064851451477153e-14;1.0;2
363.51337;82.5;1.219850800277215e-13;1.0;2
364.77634;82.75;1.8384686107223444e-13;1.0;2
366.03935;83.0;2.7629833430756185e-13;1.0;2
367.30312;83.25;4.1416418777365296e-13;1.0;2
368.56488;83.5;6.186650238641564e-13;1.0;2
369.82594;83.75;9.213236959162304e-13;1.0;2
371.08644;84.0;1.367929195005565e-12;1.0;2
372.3491;84.25;2.0266453571896348e-12;1.0;2
373.6113;84.5;2.9936287657942974e-12;1.0;2
374.87039;84.75;4.405281813816016e-12;1.0;2
376.13427;85.0;6.473739902835551e-12;1.0;2
377.3972;85.25;9.483697845936783e-12;1.0;2
378.65996;85.5;1.3853041550621557e-11;1.0;2
379.92084;85.75;2.016683188096061e-11;1.0;2
381.17904;86.0;2.9252198963019345e-11;1.0;2
382.43822;86.25;4.2323345790059345e-11;1.0;2
383.69957;86.5;6.110111100239792e-11;1.0;2
384.95855;86.75;8.790066769037478e-11;1.0;2
386.2178;87.0;1.2610823794802196e-10;1.0;2
387.47842;87.25;1.8048349416178737e-10;1.0;2
388.73801;87.5;2.575000759476038e-10;1.0;2
389.99809;87.75;3.663954807995546e-10;1.0;2
391.25439;88.0;5.193276909133372e-10;1.0;2
392.51012;88.25;7.339135361357263e-10;1.0;2
393.77304;88.5;1.0362842806757415e-9;1.0;2
395.0354;88.75;1.4588625023478887e-9;1.0;2
396.29712;89.0;2.0475928041007636e-9;1.0;2
397.55643;89.25;2.863944050947646e-9;1.0;2
398.81709;89.5;3.9958925692598496e-9;1.0;2
400.07888;89.75;5.5611236155761375e-9;1.0;2
401.33978;90.0;7.715793701183604e-9;1.0;2
402.59868;90.25;1.066957215933851e-8;1.0;2
403.85839;90.5;1.4715590227834751e-8;1.0;2
405.11936;90.75;2.0245080400244282e-8;1.0;2
406.37907;91.0;2.7764866795391722e-8;1.0;2
407.63825;91.25;3.796540696124326e-8;1.0;2
408.90137;91.5;5.181724582074377e-8;1.0;2
410.15997;91.75;7.044504857937233e-8;1.0;2
411.41797;92.0;9.548593182080891e-8;1.0;2
412.67616;92.25;1.2906979676630544e-7;1.0;2
413.93518;92.5;1.7400882259759828e-7;1.0;2
415.19164;92.75;2.3379353017221493e-7;1.0;2
416.4495;93.0;3.133388325885071e-7;1.0;2
417.70611;93.25;4.186473114431878e-7;1.0;2
418.9638;93.5;5.579153544828461e-7;1.0;2
420.22125;93.75;7.413821398194061e-7;1.0;2
421.47783;94.0;9.822215977807083e-7;1.0;2
422.7334;94.25;1.2973570668967163e-6;1.0;2
423.98984;94.5;1.7091233307752702e-6;1.0;2
425.24798;94.75;2.246086406627788e-6;1.0;2
426.50623;95.0;2.943513979581661e-6;1.0;2
427.76242;95.25;3.844967181871734e-6;1.0;2
429.01907;95.5;5.008886054232126e-6;1.0;2
430.27473;95.75;6.505488298231912e-6;1.0;2
431.53449;96.0;8.43266004437401e-6;1.0;2
432.79547;96.25;1.090259426316713e-5;1.0;2
434.05343;96.5;1.4047633501666369e-5;1.0;2
435.31265;96.75;1.805350881449491e-5;1.0;2
436.57329;97.0;2.3142759612596592e-5;1.0;2
437.83529;97.25;2.9590652174001343e-5;1.0;2
439.09275;97.5;3.769514579885651e-5;1.0;2
440.3477;97.75;4.786166690728255e-5;1.0;2
441.60436;98.0;6.06193951128742e-5;1.0;2
442.85881;98.25;7.653099648402796e-5;1.0;2
444.11734;98.5;9.642063018677581e-5;1.0;2
445.37682;98.75;0.000121158120218899;1.0;2
446.63769;99.0;0.00015185051976687207;1.0;2
447.8979;99.25;0.00018975827750120658;1.0;2
449.15915;99.5;0.00023650257384464458;1.0;2
450.41896;99.75;0.0002938557856269492;1.0;2
451.67637;100.0;0.0003639398428203143;1.0;2
452.93349;100.25;0.00044945037915055194;1.0;2
454.18906;100.5;0.0005533520315742751;1.0;2
455.4418;100.75;0.0006790522201460103;1.0;2
456.69625;101.0;0.0008312096159457591;1.0;2
457.9502;101.25;0.0010145354175074316;1.0;2
459.20187;101.5;0.0012343954368487196;1.0;2
460.45538;101.75;0.0014981416715194006;1.0;2
461.71293;102.0;0.001814270297221916;1.0;2
462.96792;102.25;0.0021900956387564765;1.0;2
464.22181;102.5;0.0026359465477095037;1.0;2
465.4741;102.75;0.003162964975149272;1.0;2
466.72711;103.0;0.00378516100853703;1.0;2
467.97989;103.25;0.004516964551093149;1.0;2
469.23256;103.5;0.0053751328571330975;1.0;2
470.48607;103.75;0.00637922837125602;1.0;2
471.73886;104.0;0.007549023595993725;1.0;2
472.99183;104.25;0.0089086196626665;1.0;2
474.24319;104.5;0.010481571152754665;1.0;2
475.4947;104.75;0.012298159697044115;1.0;2
476.74682;105.0;0.014390505592399603;1.0;2
477.9978;105.25;0.016789569495465617;1.0;2
479.24884;105.5;0.019534237045438697;1.0;2
480.50127;105.75;0.02266806946438656;1.0;2
481.75305;106.0;0.02622934697499583;1.0;2
483.00552;106.25;0.030267953965598178;1.0;2
484.25633;106.5;0.03482458945479409;1.0;2
485.50699;106.75;0.039955120881602676;1.0;2
486.76037;107.0;0.045727307881041936;1.0;2
488.01307;107.25;0.05218355076947894;1.0;2
489.26592;107.5;0.0593861542201435;1.0;2
490.51994;107.75;0.06740221301031514;1.0;2
491.77211;108.0;0.07627268760951217;1.0;2
493.02381;108.25;0.08606616061460322;1.0;2
494.27758;108.5;0.09686534562300059;1.0;2
495.53053;108.75;0.1087068497306315;1.0;2
496.78162;109.0;0.12163545396661218;1.0;2
498.03446;109.25;0.13574355642579236;1.0;2
499.28728;109.5;0.1510651182764536;1.0;2
500.54115;109.75;0.16766146869073772;1.0;2
501.7957;110.0;0.18557119459561194;1.0;2
503.04837;110.25;0.20478959561950844;1.0;2
504.30081;110.5;0.22536407103742606;1.0;2
505.55352;110.75;0.2473189967837426;1.0;2
506.80422;111.0;0.2706171552630006;1.0;2
508.05466;111.25;0.2952814901493642;1.0;2
509.30698;111.5;0.321338419759296;1.0;2
510.56153;111.75;0.34876982972996196;1.0;2
511.79767;112.0;0.3770536021356787;1.0;2
513.03393;112.25;0.4065268044204558;1.0;2
514.31439;112.5;0.4382262126079719;1.0;2
515.60267;112.75;0.4712242207403444;1.0;2
516.89114;113.0;0.5052173644353631;1.0;2
518.17694;113.25;0.5399914692503527;1.0;2
519.45943;113.5;0.5753710679924714;1.0;2
520.74009;113.75;0.6112249651135273;1.0;2
522.02135;114.0;0.6474373264042185;1.0;2
523.31841;114.25;0.6842425078010448;1.0;2
524.65846;114.5;0.7221914841908784;1.0;2
526.02518;114.75;0.7605563118630312;1.0;2
527.4373;115.0;0.7995403966666528;1.0;2
528.91427;115.25;0.8392611744295334;1.0;2
530.34023;115.5;0.876247262593588;1.0;2
531.69136;115.75;0.9097521264852687;1.0;2
532.99981;116.0;0.9405019051685553;1.0;2
534.27673;116.25;0.9686623218927214;1.0;2
535.53155;116.5;0.9943413163871411;1.0;2
536.76971;116.75;1.0175474106428315;1.0;2
537.99608;117.0;1.0382697913225822;1.0;2
539.21808;117.25;1.0565211135693386;1.0;2
540.43685;117.5;1.0722014053728859;1.0;2
541.65391;117.75;1.0852249179581896;1.0;2
542.87079;118.0;1.0955131505628248;1.0;2
544.08577;118.25;1.1029784516780172;1.0;2
545.2994;118.5;1.1075771049422667;1.0;2
546.51408;118.75;1.1092831506249707;1.0;2
547.73081;119.0;1.1080734540666726;1.0;2
548.94731;119.25;1.1039532809955424;1.0;2
550.16303;119.5;1.0969605363267216;1.0;2
551.38091;119.75;1.0871284417150306;1.0;2
552.60092;120.0;1.074519484410554;1.0;2
553.823;120.25;1.059218659283249;1.0;2
555.04616;120.5;1.0413468903320047;1.0;2
556.2706;120.75;1.0210315088311703;1.0;2
557.49705;121.0;0.9984056033464916;1.0;2
558.72281;121.25;0.9736852012134376;1.0;2
559.94718;121.5;0.9470720004649912;1.0;2
561.17195;121.75;0.9187219735763086;1.0;2
562.39775;122.0;0.8888184654248042;1.0;2
563.62401;122.25;0.8575796301469548;1.0;2
564.8499;122.5;0.8252369357407527;1.0;2
566.07719;122.75;0.791954262313365;1.0;2
567.30459;123.0;0.7579759552841044;1.0;2
568.53556;123.25;0.7234120101671292;1.0;2
569.76588;123.5;0.6885829783587519;1.0;2
570.99541;123.75;0.6536896761907002;1.0;2
572.22268;124.0;0.6189607256290132;1.0;2
573.45063;124.25;0.5844887256112081;1.0;2
574.68457;124.5;0.5502925500175929;1.0;2
575.91688;124.75;0.5167387595001309;1.0;2
577.14862;125.0;0.4839360726876052;1.0;2
578.38872;125.25;0.4517798462053068;1.0;2
579.63101;125.5;0.4205532922252057;1.0;2
580.8682;125.75;0.3905325758498862;1.0;2
582.1069;126.0;0.3616336675345679;1.0;2
583.34579;126.25;0.3339557656018061;1.0;2
584.58099;126.5;0.3076315381592864;1.0;2
585.81596;126.75;0.28261832938266707;1.0;2
587.05229;127.0;0.2589096943497327;1.0;2
588.2876;127.25;0.2365634163502134;1.0;2
589.52354;127.5;0.21554916150547024;1.0;2
590.7589;127.75;0.19587727636562527;1.0;2
591.99843;128.0;0.17745808172221023;1.0;2
593.23967;128.25;0.1603091041632854;1.0;2
594.48051;128.5;0.1444256783879904;1.0;2
595.72253;128.75;0.12974649880776293;1.0;2
596.96414;129.0;0.11624395097582131;1.0;2
598.20708;129.25;0.10384853027000471;1.0;2
599.45067;129.5;0.09251444777192694;1.0;2
600.69309;129.75;0.0822000696471323;1.0;2
601.93552;130.0;0.07283517064682354;1.0;2
603.17808;130.25;0.06435927676997666;1.0;2
604.42145;130.5;0.05670893169066179;1.0;2
605.66623;130.75;0.049823284256763786;1.0;2
606.90861;131.0;0.043664381751383166;1.0;2
608.15011;131.25;0.038165501419481315;1.0;2
609.39333;131.5;0.033261336190347573;1.0;2
610.63595;131.75;0.028909682748779454;1.0;2
611.87783;132.0;0.025060553900704236;1.0;2
613.12313;132.25;0.021655588319493203;1.0;2
614.36584;132.5;0.018667500416682314;1.0;2
615.6071;132.75;0.016050400867965258;1.0;2
616.8482;133.0;0.013762688186267703;1.0;2
618.08904;133.25;0.011769128789860738;1.0;2
619.3303;133.5;0.010036251727223396;1.0;2
620.57247;133.75;0.008534060948007295;1.0;2
621.81521;134.0;0.00723625797417921;1.0;2
623.05379;134.25;0.006122436524417559;1.0;2
624.29356;134.5;0.0051650819095936246;1.0;2
625.534;134.75;0.0043451133201752494;1.0;2
626.77557;135.0;0.0036447315276544536;1.0;2
628.01476;135.25;0.003049917734829404;1.0;2
629.25352;135.5;0.0025453712276785213;1.0;2
630.49168;135.75;0.002118687073208049;1.0;2
631.72643;136.0;0.0017596317108577995;1.0;2
632.96171;136.25;0.0014573464758517467;1.0;2
634.19639;136.5;0.0012038292874255992;1.0;2
635.43054;136.75;0.0009918019584049713;1.0;2
636.6665;137.0;0.0008146698038625937;1.0;2
637.90129;137.25;0.0006674826362274669;1.0;2
639.13785;137.5;0.0005452467785230148;1.0;2
640.37426;137.75;0.0004441964715177901;1.0;2
641.61084;138.0;0.00036088006557280473;1.0;2
642.84821;138.25;0.00029235455623441436;1.0;2
644.08657;138.5;0.00023615583959044834;1.0;2
645.32256;138.75;0.00019031932585337246;1.0;2
646.55795;139.0;0.00015297924877406442;1.0;2
647.79259;139.25;0.00012264816059675366;1.0;2
649.02743;139.5;9.80607879561802e-5;1.0;2
650.26134;139.75;7.820337622947769e-5;1.0;2
651.49313;140.0;6.222294289455683e-5;1.0;2
652.72526;140.25;4.937132641881007e-5;1.0;2
653.95775;140.5;3.906570036612047e-5;1.0;2
655.18763;140.75;3.084332861734192e-5;1.0;2
656.4166;141.0;2.4290409147809755e-5;1.0;2
657.64601;141.25;1.907669386970425e-5;1.0;2
658.87412;141.5;1.494568479526073e-5;1.0;2
660.10143;141.75;1.1679729781351172e-5;1.0;2
661.33029;142.0;9.100137070007669e-6;1.0;2
662.55916;142.25;7.071227993796781e-6;1.0;2
663.78665;142.5;5.481499555537266e-6;1.0;2
665.017;142.75;4.235234238378716e-6;1.0;2
666.24737;143.0;3.2634988827288796e-6;1.0;2
667.4744;143.25;2.509755043231999e-6;1.0;2
668.70292;143.5;1.924308618376644e-6;1.0;2
669.93097;143.75;1.4716218447097357e-6;1.0;2
671.15414;144.0;1.1236258672243429e-6;1.0;2
672.37582;144.25;8.559246394266572e-7;1.0;2
673.59741;144.5;6.502860351717948e-7;1.0;2
674.8184;144.75;4.928096717792681e-7;1.0;2
676.03891;145.0;3.7252001086499686e-7;1.0;2
677.25819;145.25;2.8092648148818517e-7;1.0;2
678.47688;145.5;2.1132295973727122e-7;1.0;2
679.69699;145.75;1.5849169760329824e-7;1.0;2
680.91548;146.0;1.1859974581111756e-7;1.0;2
682.13134;146.25;8.857043704464249e-8;1.0;2
683.34619;146.5;6.598691110196387e-8;1.0;2
684.55985;146.75;4.904704329161791e-8;1.0;2
685.77544;147.0;3.634307054186053e-8;1.0;2
686.98574;147.25;2.6894418114468803e-8;1.0;2
688.19631;147.5;1.9849098976822995e-8;1.0;2
689.40668;147.75;1.4611966632087285e-8;1.0;2
690.61771;148.0;1.0726810467406276e-8;1.0;2
691.83061;148.25;7.850348297167347e-9;1.0;2
693.04255;148.5;5.731637221776788e-9;1.0;2
694.25602;148.75;4.172135823879334e-9;1.0;2
695.47319;149.0;3.026036465454333e-9;1.0;2
696.69398;149.25;2.186878664807162e-9;1.0;2
697.91586;149.5;1.5757803554203417e-9;1.0;2
699.14164;149.75;1.131234772188676e-9;1.0;2
700.37065;150.0;8.092159337000449e-10;1.0;2
701.60075;150.25;5.771356444044312e-10;1.0;2
702.83051;150.5;4.105468583350319e-10;1.0;2
704.06034;150.75;2.9125272848324494e-10;1.0;2
705.29073;151.0;2.0603424216861872e-10;1.0;2
706.52578;151.25;1.4516520792137806e-10;1.0;2
707.76142;151.5;1.0198423820628593e-10;1.0;2
708.99947;151.75;7.140371519922393e-11;1.0;2
710.23597;152.0;4.987923052047656e-11;1.0;2
711.47132;152.25;3.4760285512937006e-11;1.0;2
712.7091;152.5;2.41409989578272e-11;1.0;2
713.94498;152.75;1.672971549017859e-11;1.0;2
715.18051;153.0;1.1563432448417024e-11;1.0;2
716.41598;153.25;7.971000066620543e-12;1.0;2
717.64937;153.5;5.4831980027261276e-12;1.0;2
718.88539;153.75;3.758623833469481e-12;1.0;2
720.12085;154.0;2.569910072900208e-12;1.0;2
721.3571;154.25;1.751944608277217e-12;1.0;2
722.59216;154.5;1.1915253165097033e-12;1.0;2
723.82674;154.75;8.083003853496065e-13;1.0;2
725.06143;155.0;5.468256719533956e-13;1.0;2
726.29598;155.25;3.689487228211658e-13;1.0;2
727.53204;155.5;2.4813828913692355e-13;1.0;2
728.76945;155.75;1.6636057493683788e-13;1.0;2
730.00617;156.0;1.1125543121350287e-13;1.0;2
731.24206;156.25;7.422123375265756e-14;1.0;2
732.47824;156.5;4.937563811663073e-14;1.0;2
733.71248;156.75;3.277906546109048e-14;1.0;2
734.95014;157.0;2.1677287654099615e-14;1.0;2
736.18665;157.25;1.430203117634284e-14;1.0;2
737.42311;157.5;9.410570650540771e-15;1.0;2
738.66134;157.75;6.171484154980504e-15;1.0;2
739.89823;158.0;4.038111255518317e-15;1.0;2
741.13524;158.25;2.6349128550267234e-15;1.0;2
742.37096;158.5;1.7154045795721763e-15;1.0;2
743.60685;158.75;1.1136804129964892e-15;1.0;2
744.84184;159.0;7.212930960714777e-16;1.0;2
746.0747;159.25;4.662430495543448e-16;1.0;2
747.30754;159.5;3.005668783292386e-16;1.0;2
748.54211;159.75;1.9311896477093539e-16;1.0;2
749.77401;160.0;1.2386534806786596e-16;1.0;2
751.00673;160.25;7.920854843009443e-17;1.0;2
752.24085;160.5;5.048903509738951e-17;1.0;2
753.47352;160.75;3.211268333987064e-17;1.0;2
754.70893;161.0;2.0348893014418695e-17;1.0;2
755.94445;161.25;1.2859005060394927e-17;1.0;2
757.17855;161.5;8.108211201221643e-18;1.0;2
758.41213;161.75;5.099769651646412e-18;1.0;2
759.64654;162.0;3.1978866574258844e-18;1.0;2
760.88041;162.25;2.0002630351189092e-18;1.0;2
762.11627;162.5;1.2468171768114096e-18;1.0;2
763.35118;162.75;7.753484681902952e-19;1.0;2
764.58722;163.0;4.806421271988507e-19;1.0;2
765.82332;163.25;2.9713618898433356e-19;1.0;2
767.05869;163.5;1.8324516676512182e-19;1.0;2
768.29501;163.75;1.1265928204057378e-19;1.0;2
769.53183;164.0;6.90611362554958e-20;1.0;2
770.76952;164.25;4.220532065551544e-20;1.0;2
772.00806;164.5;2.57139278385339e-20;1.0;2
773.24657;164.75;1.562388716186493e-20;1.0;2
774.48443;165.0;9.469750117237932e-21;1.0;2
775.72237;165.25;5.723863639577541e-21;1.0;2
776.96229;165.5;3.447488529600219e-21;1.0;2
778.1998;165.75;2.0728094065566803e-21;1.0;2
779.43603;166.0;1.2435477028697715e-21;1.0;2
780.67127;166.25;7.443261323796016e-22;1.0;2
781.90496;166.5;4.4459698375927235e-22;1.0;2
783.13976;166.75;2.647221488546281e-22;1.0;2
784.3755;167.0;1.5713127524125555e-22;1.0;2
785.60911;167.25;9.309965136918768e-23;1.0;2
786.84159;167.5;5.503854377466763e-23;1.0;2
788.07654;167.75;3.241533863347467e-23;1.0;2
789.31232;168.0;1.903266231953957e-23;1.0;2
790.54753;168.25;1.1147448690123595e-23;1.0;2
791.78212;168.5;6.5131261599287115e-24;1.0;2
793.01725;168.75;3.794219021865714e-24;1.0;2
794.25524;169.0;2.201549948426022e-24;1.0;2
795.49293;169.25;1.2741121534819073e-24;1.0;2
796.72949;169.5;7.357344248127718e-25;1.0;2
797.96624;169.75;4.236581528206534e-25;1.0;2
799.20028;170.0;2.435885207116333e-25;1.0;2
800.43547;170.25;1.3960315502538956e-25;1.0;2
801.67162;170.5;7.975629685289332e-26;1.0;2
802.90479;170.75;4.5503403981695183e-26;1.0;2
804.14132;171.0;2.585106146533511e-26;1.0;2
805.37873;171.25;1.4640465897679786e-26;1.0;2
806.61295;171.5;8.281116818576376e-27;1.0;2
807.84551;171.75;4.674989011308313e-27;1.0;2
809.07993;172.0;2.62978673883136e-27;1.0;2
810.31169;172.25;1.4771505550723883e-27;1.0;2
811.54371;172.5;8.273759536111295e-28;1.0;2
812.77867;172.75;4.615330291828943e-28;1.0;2
814.01246;173.0;2.5690086383557816e-28;1.0;2
815.24484;173.25;1.4270671657094427e-28;1.0;2
816.47487;173.5;7.914791023636661e-29;1.0;2
817.70859;173.75;4.370102937128096e-29;1.0;2
818.94354;174.0;2.4049628005329656e-29;1.0;2
820.17685;174.25;1.3209699252157556e-29;1.0;2
821.40964;174.5;7.237892843275695e-30;1.0;2
822.64283;174.75;3.954314476402167e-30;1.0;2
823.87678;175.0;2.1537326673683443e-30;1.0;2
825.11109;175.25;1.1696552074386387e-30;1.0;2
826.34589;175.5;6.333448647080874e-31;1.0;2
827.57988;175.75;3.421526618132564e-31;1.0;2
828.81525;176.0;1.8421349904763936e-31;1.0;2
830.05052;176.25;9.891568287165401e-32;1.0;2
831.28266;176.5;5.305399267878863e-32;1.0;2
832.51802;176.75;2.83325576349191e-32;1.0;2
833.75179;177.0;1.510172953131757e-32;1.0;2
834.98725;177.25;8.020735348348319e-33;1.0;2
836.22185;177.5;4.250248319046473e-33;1.0;2
837.45499;177.75;2.2478348324361277e-33;1.0;2
838.69067;178.0;1.1840377106571082e-33;1.0;2
839.92695;178.25;6.217994065388763e-34;1.0;2
841.16239;178.5;3.2579532992640184e-34;1.0;2
842.39641;178.75;1.7036650271427121e-34;1.0;2
843.63011;179.0;8.886277528241954e-35;1.0;2
844.86589;179.25;4.617420664885031e-35;1.0;2
846.10147;179.5;2.3930115399801963e-35;1.0;2
847.33569;179.75;1.237730669724771e-35;1.0;2
848.56946;180.0;6.38608958791655e-36;1.0;2
849.80118;180.25;3.28963437145505e-36;1.0;2
851.03426;180.5;1.6887580979474667e-36;1.0;2
852.2652;180.75;8.656005287486568e-37;1.0;2
853.49962;181.0;4.416423892812646e-37;1.0;2
854.7352;181.25;2.2457932711713654e-37;1.0;2
855.96932;181.5;1.139824009443593e-37;1.0;2
857.20286;181.75;5.771221270747188e-38;1.0;2
858.43773;182.0;2.9120633599741916e-38;1.0;2
859.67186;182.25;1.4660008085159555e-38;1.0;2
860.90436;182.5;7.366924825560924e-39;1.0;2
862.13858;182.75;3.6884550214471266e-39;1.0;2
863.37203;183.0;1.842526504841271e-39;1.0;2
864.60703;183.25;9.171194756436113e-40;1.0;2
865.84215;183.5;4.552285022311181e-40;1.0;2
867.07611;183.75;2.2549715755682776e-40;1.0;2
868.31209;184.0;1.112687807041028e-40;1.0;2
869.54783;184.25;5.476266758597097e-41;1.0;2
870.78276;184.5;2.689170832667854e-41;1.0;2
872.0177;184.75;1.3169545189147164e-41;1.0;2
873.2523;185.0;6.433245039376666e-42;1.0;2
874.48665;185.25;3.1345449788808e-42;1.0;2
875.72051;185.5;1.523581834590592e-42;1.0;2
876.95495;185.75;7.382987009285323e-43;1.0;2
878.1884;186.0;3.5700492599501887e-43;1.0;2
879.42137;186.25;1.7221212535640284e-43;1.0;2
880.65304;186.5;8.291130822847672e-44;1.0;2
881.88662;186.75;3.976455406647244e-44;1.0;2
883.12136;187.0;1.9006423484595294e-44;1.0;2
884.35346;187.25;9.074347281280056e-45;1.0;2
885.58682;187.5;4.317444207296918e-45;1.0;2
886.82156;187.75;2.0469123854938517e-45;1.0;2
888.055;188.0;9.685819216231007e-46;1.0;2
889.28855;188.25;4.570547975321836e-46;1.0;2
890.52117;188.5;2.152143157415445e-46;1.0;2
891.75585;188.75;1.0093689663883215e-46;1.0;2
892.98619;189.0;4.733826745084996e-47;1.0;2
894.21612;189.25;2.21469939717584e-47;1.0;2
895.45021;189.5;1.0306853234431459e-47;1.0;2
896.68198;189.75;4.79057795067053e-48;1.0;2
897.91234;190.0;2.2225920462397027e-48;1.0;2
899.14484;190.25;1.0270184438318318e-48;1.0;2
900.3779;190.5;4.7311784489715155e-49;1.0;2
901.61041;190.75;2.1743828526915685e-49;1.0;2
902.84523;191.0;9.951586339690679e-50;1.0;2
904.0798;191.25;4.542961019982882e-50;1.0;2
905.31537;191.5;2.0669511675351438e-50;1.0;2
906.55047;191.75;9.381495480054254e-51;1.0;2
