#EXPORTTYPE:DATA SINGLE
#FTYPE:ANSI
#DECIMAL:POINT
#SEPARATOR:SEMICOLON
#MTYPE:DSC
#PROJECT:
#CORR. FILE:005925_bline_Al2O3_900_7.5_N2_20_air_20.ngb-bs1
#TEMPCAL:TCALZERO.TCX
#SENSITIVITY:SENSZERO.EXX
#LABORATORY:13
#OPERATOR:
#REMARK:
#SAMPLE:4
#SAMPLE MASS /mg:7.42
#MATERIAL:
#REFERENCE:
#REFERENCE MASS /mg:0
#TYPE OF CRUCIBLE:DSC/TG pan Al2O3
#SAMPLE CRUCIBLE MASS /mg:0
#REFERENCE CRUCIBLE MASS /mg:0
#DSC RANGE /V:5000
#TG RANGE /mg:5000
#TAU-R:---
#CORR. CODE:020
#EXO:+1
#RANGE:35C/7,5(K/min)/920�C
#SEGMENT:S1/1
#SEG. 1:35�C/7,5(K/min)/920�C

##Temp./�C;Time/min;DSC/(uV/mg);Sensit./(uV/mW)
34.14896;0.5;4.862258914811669e-122;1.0
34.59436;1.0;7.312031510769035e-122;1.0
35.68375;1.5;1.9810735454436568e-121;1.0
37.32905;2.0;8.895759877180847e-121;1.0
39.42311;2.5;5.9816806277998027e-120;1.0
41.82416;3.0;5.275642801156358e-119;1.0
44.48642;3.5;5.836956249351149e-118;1.0
47.36371;4.0;7.748454183956698e-117;1.0
50.40853;4.5;1.1796427298971202e-115;1.0
53.59856;5.0;2.01462703200299e-114;1.0
56.91062;5.5;3.7736356430997375e-113;1.0
60.33416;6.0;7.667201913078309e-112;1.0
63.83709;6.5;1.6403211064665216e-110;1.0
67.40722;7.0;3.6517804673882767e-109;1.0
71.01816;7.5;8.260888111082174e-108;1.0
74.673;8.0;1.9026321056543487e-106;1.0
78.36113;8.5;4.418331290639634e-105;1.0
82.0722;9.0;1.0249465858197318e-103;1.0
85.82376;9.5;2.4094077312628666e-102;1.0
89.60155;10.0;5.6679860995208016e-101;1.0
93.40258;10.5;1.3304186571786497e-99;1.0
97.22127;11.0;3.1004511190247526e-98;1.0
101.0636;11.5;7.206517400888023e-97;1.0
104.91793;12.0;1.6543105089585897e-95;1.0
108.78251;12.5;3.744534701754062e-94;1.0
112.64249;13.0;8.257350621957225e-93;1.0
116.50784;13.5;1.7881861017033483e-91;1.0
120.36778;14.0;3.770415633052411e-90;1.0
124.22933;14.5;7.783815179777133e-89;1.0
128.09969;15.0;1.5821027302339228e-87;1.0
131.96873;15.5;3.140970118962794e-86;1.0
135.85067;16.0;6.157521627970966e-85;1.0
139.73913;16.5;1.1859418670336832e-83;1.0
143.63669;17.0;2.2481697335734208e-82;1.0
147.54049;17.5;4.185110489549287e-81;1.0
151.44664;18.0;7.627789580549036e-80;1.0
155.35118;18.5;1.3571364834534948e-78;1.0
159.25395;19.0;2.3569104105138157e-77;1.0
163.1588;19.5;4.0066289444677606e-76;1.0
167.05856;20.0;6.632600941743018e-75;1.0
170.9538;20.5;1.0697249839498321e-73;1.0
174.8622;21.0;1.7021273293756803e-72;1.0
178.75347;21.5;2.615444030297678e-71;1.0
182.6578;22.0;3.9641819611865715e-70;1.0
186.56078;22.5;5.866977938310778e-69;1.0
190.46731;23.0;8.50724328638544e-68;1.0
194.36991;23.5;1.2024152958403487e-66;1.0
198.27002;24.0;1.658289395961259e-65;1.0
202.16893;24.5;2.2335586792704005e-64;1.0
206.06338;25.0;2.931858019877956e-63;1.0
209.95464;25.5;3.7539701731536598e-62;1.0
213.84576;26.0;4.6980933859590794e-61;1.0
217.73087;26.5;5.725366315099577e-60;1.0
221.61424;27.0;6.813317837449326e-59;1.0
225.49647;27.5;7.920723986236007e-58;1.0
229.38404;28.0;9.032008190443224e-57;1.0
233.26766;28.5;1.0043515859444671e-55;1.0
237.15058;29.0;1.0913456565273426e-54;1.0
241.03071;29.5;1.1573629394331098e-53;1.0
244.90976;30.0;1.1991517756910005e-52;1.0
248.78506;30.5;1.2119800962337194e-51;1.0
252.66656;31.0;1.2019978199656258e-50;1.0
256.53507;31.5;1.1566401703422614e-49;1.0
260.40607;32.0;1.0898174433194059e-48;1.0
264.2732;32.5;1.0017857058980439e-47;1.0
268.14446;33.0;9.025131954863001e-47;1.0
272.01558;33.5;7.949170724609811e-46;1.0
275.88229;34.0;6.828960870945135e-45;1.0
279.74731;34.5;5.73102208310027e-44;1.0
283.61204;35.0;4.702148455246741e-43;1.0
287.47454;35.5;3.7678888099398685e-42;1.0
291.33366;36.0;2.947062969357855e-41;1.0
295.18742;36.5;2.247734569899274e-40;1.0
299.03844;37.0;1.6741537239314004e-39;1.0
302.89008;37.5;1.2198577553969586e-38;1.0
306.74185;38.0;8.69308739785838e-38;1.0
310.59553;38.5;6.064239382243016e-37;1.0
314.44818;39.0;4.1349394613389e-36;1.0
318.30158;39.5;2.7582824824691013e-35;1.0
322.14887;40.0;1.794064561689404e-34;1.0
325.99403;40.5;1.1400907342197993e-33;1.0
329.83591;41.0;7.074943087810705e-33;1.0
333.67614;41.5;4.290852275663363e-32;1.0
337.51342;42.0;2.541871169166501e-31;1.0
341.34351;42.5;1.468037780811713e-30;1.0
345.16604;43.0;8.265637632138581e-30;1.0
348.9924;43.5;4.5605925281516357e-29;1.0
352.81507;44.0;2.4576140188845497e-28;1.0
356.63256;44.5;1.2927115466436695e-27;1.0
360.4502;45.0;6.652893537892098e-27;1.0
364.26445;45.5;3.344974787251914e-26;1.0
368.07553;46.0;1.6432868943631078e-25;1.0
371.88493;46.5;7.893335712089412e-25;1.0
375.69218;47.0;3.706504943299902e-24;1.0
379.50536;47.5;1.7070131349370574e-23;1.0
383.31778;48.0;7.689435534584086e-23;1.0
387.12696;48.5;3.384753819406704e-22;1.0
390.93715;49.0;1.4583480168631612e-21;1.0
394.73795;49.5;6.126275332584114e-21;1.0
398.53796;50.0;2.517569066432392e-20;1.0
402.33673;50.5;1.0119304993518287e-19;1.0
406.13316;51.0;3.976882370986452e-19;1.0
409.93214;51.5;1.530813913755259e-18;1.0
413.73369;52.0;5.771300671538636e-18;1.0
417.52987;52.5;2.1252169608433437e-17;1.0
421.32731;53.0;7.661523461274167e-17;1.0
425.12158;53.5;2.700018272274057e-16;1.0
428.90907;54.0;9.291255907112056e-16;1.0
432.69609;54.5;3.1286669693364577e-15;1.0
436.48354;55.0;1.0312095076809574e-14;1.0
440.27147;55.5;3.3269065467805256e-14;1.0
444.06617;56.0;1.0525875626886665e-13;1.0
447.85389;56.5;3.252280975662098e-13;1.0
451.63731;57.0;9.82242095770651e-13;1.0
455.42415;57.5;2.906246448848906e-12;1.0
459.21182;58.0;8.417667896495536e-12;1.0
462.99486;58.5;2.383114363845651e-11;1.0
466.78031;59.0;6.607558387872849e-11;1.0
470.55442;59.5;1.7877404071571996e-10;1.0
474.32873;60.0;4.734761724489157e-10;1.0
478.10582;60.5;1.2282878666235903e-9;1.0
481.87747;61.0;3.1147227688142816e-9;1.0
485.65156;61.5;7.735906818436814e-9;1.0
489.42355;62.0;1.8797458390502756e-8;1.0
493.19251;62.5;4.4679362636719056e-8;1.0
496.96454;63.0;1.0402630095938665e-7;1.0
500.74402;63.5;2.3746250359265398e-7;1.0
504.52424;64.0;5.306350958223985e-7;1.0
508.30342;64.5;1.1603329391464468e-6;1.0
512.08816;65.0;2.4861748919192214e-6;1.0
515.87489;65.5;5.215584815312045e-6;1.0
519.66547;66.0;1.0716008189359027e-5;1.0
523.46282;66.5;2.1573631395430865e-5;1.0
527.26785;67.0;4.255913490181655e-5;1.0
531.11107;67.5;8.26868354349705e-5;1.0
535.00133;68.0;0.00015834247947246348;1.0
538.92818;68.5;0.0002981260965919806;1.0
542.74282;69.0;0.0005391602223400687;1.0
546.55013;69.5;0.0009529629205906443;1.0
550.38302;70.0;0.0016540339633354302;1.0
554.18429;70.5;0.0027962239193088834;1.0
557.93544;71.0;0.00459570726788385;1.0
561.66284;71.5;0.007373511121529304;1.0
565.36965;72.0;0.01155776147541416;1.0
569.06301;72.5;0.01771944273794964;1.0
572.75413;73.0;0.026608681448717975;1.0
576.45703;73.5;0.039194920732191024;1.0
580.16107;74.0;0.05656389023409394;1.0
583.86165;74.5;0.07993967094580579;1.0
587.57162;75.0;0.11076414202404983;1.0
591.28702;75.5;0.15039894911899682;1.0
595.01128;76.0;0.20015657941047516;1.0
598.7338;76.5;0.26085261003964855;1.0
602.46202;77.0;0.3330705319160822;1.0
606.19016;77.5;0.41649318201262575;1.0
609.92198;78.0;0.5101466131782698;1.0
613.6602;78.5;0.612103595899864;1.0
617.39442;79.0;0.7190659923162008;1.0
621.12911;79.5;0.8272239375104334;1.0
624.86455;80.0;0.9319402421290357;1.0
628.59634;80.5;1.0280477523519786;1.0
632.32544;81.0;1.1105366078122512;1.0
636.05278;81.5;1.1748202892058532;1.0
639.77706;82.0;1.2171329481413489;1.0
643.49529;82.5;1.2349616612557486;1.0
647.21445;83.0;1.227293128738226;1.0
650.93258;83.5;1.194604896942202;1.0
654.64953;84.0;1.1389114329021301;1.0
658.36834;84.5;1.0634715019928833;1.0
662.08907;85.0;0.9725630530893055;1.0
665.81225;85.5;0.8710523264608053;1.0
669.52587;86.0;0.7643382492062645;1.0
673.23455;86.5;0.6570885695409181;1.0
676.93171;87.0;0.5536501206797605;1.0
680.62133;87.5;0.45720287434654294;1.0
684.30083;88.0;0.3701403598535666;1.0
687.97511;88.5;0.2937250274533906;1.0
691.6386;89.0;0.2285821190467363;1.0
695.29824;89.5;0.17438798810384187;1.0
698.95684;90.0;0.13040407618907063;1.0
702.6104;90.5;0.09561495295338118;1.0
706.27711;91.0;0.06863102969496279;1.0
709.94662;91.5;0.04826414013819326;1.0
713.63249;92.0;0.03320504782981139;1.0
717.33109;92.5;0.022351887333812444;1.0
721.03893;93.0;0.01472439805995046;1.0
724.75496;93.5;0.009492099048543805;1.0
728.46765;94.0;0.005996009878708741;1.0
732.1838;94.5;0.003708275169701615;1.0
735.89875;95.0;0.0022466973958288872;1.0
739.61251;95.5;0.001333485593691327;1.0
743.32685;96.0;0.000775170846487809;1.0
747.03878;96.5;0.0004415381030781004;1.0
750.74775;97.0;0.00024646560408772973;1.0
754.45156;97.5;0.0001348781138733512;1.0
758.16385;98.0;7.220170466776379e-5;1.0
761.88054;98.5;3.782907540778889e-5;1.0
765.60308;99.0;1.9392308403458712e-5;1.0
769.32759;99.5;9.732687862830493e-6;1.0
773.04714;100.0;4.788544711209618e-6;1.0
776.76682;100.5;2.307479387401206e-6;1.0
780.48636;101.0;1.0890772764355207e-6;1.0
784.20287;101.5;5.037685334546486e-7;1.0
787.92078;102.0;2.281716453282011e-7;1.0
791.63775;102.5;1.012430975981625e-7;1.0
795.3552;103.0;4.399558969540306e-8;1.0
799.075;103.5;1.8715457969755398e-8;1.0
802.79867;104.0;7.790494821512204e-9;1.0
806.51585;104.5;3.181056906261114e-9;1.0
810.23353;105.0;1.2720669209806585e-9;1.0
813.94895;105.5;4.985199323340924e-10;1.0
817.66769;106.0;1.9119401510067934e-10;1.0
821.39027;106.5;7.17465467799734e-11;1.0
825.10848;107.0;2.6399967370501532e-11;1.0
828.83296;107.5;9.497997241240558e-12;1.0
832.55713;108.0;3.3469529038329825e-12;1.0
836.28349;108.5;1.1543702912548263e-12;1.0
840.00993;109.0;3.89916987983667e-13;1.0
843.73851;109.5;1.2890268809038978e-13;1.0
847.46384;110.0;4.1774720257917206e-14;1.0
851.17389;110.5;1.3322158185664387e-14;1.0
854.88929;111.0;4.15452397001653e-15;1.0
858.60524;111.5;1.2687788742692043e-15;1.0
862.3222;112.0;3.794015964687569e-16;1.0
866.0378;112.5;1.1117227213738985e-16;1.0
869.75149;113.0;3.192778006064641e-17;1.0
873.46295;113.5;8.988301042381495e-18;1.0
877.16955;114.0;2.4827841908629806e-18;1.0
880.87456;114.5;6.7217643665022e-19;1.0
884.58329;115.0;1.7802850614521744e-19;1.0
888.29093;115.5;4.620580574873903e-20;1.0
891.99326;116.0;1.1770481778580986e-20;1.0
895.69271;116.5;2.9405088785791924e-21;1.0
899.39064;117.0;7.200717943894333e-22;1.0
903.08196;117.5;1.731907252028936e-22;1.0
