#EXPORTTYPE:DATA SINGLE
#FILE:00592013__Al2O3_900_5_N2_20_air_20.ngb-ds1
#FTYPE:ANSI
#IDENTITY:005920
#DECIMAL:POINT
#SEPARATOR:SEMICOLON
#MTYPE:DSC
#PROJECT:
#DATE/TIME:21.07.2025 08:33
#CORR. FILE:005919_bline_Al2O3_900_5_N2_20_air_20.ngb-bs1
#TEMPCAL:TCALZERO.TCX
#SENSITIVITY:SENSZERO.EXX
#LABORATORY: 11
#OPERATOR:
#REMARK:
#SAMPLE:1
#SAMPLE MASS /mg:9.99
#MATERIAL:
#REFERENCE:
#REFERENCE MASS /mg:0
#TYPE OF CRUCIBLE:DSC/TG pan Al2O3
#SAMPLE CRUCIBLE MASS /mg:0
#REFERENCE CRUCIBLE MASS /mg:0
#DSC RANGE /V:5000
#TG RANGE /mg:5000
#TAU-R:---
#CORR. CODE:020
#EXO:+1
#RANGE:35C/00:00/35C/5,0(K/min)/920C/
#SEGMENT:S1-2/2
#SEG. 1:35C/00:15/35C
#SEG. 2:35C/5,0(K/min)/920C

##Temp./C;Time/min;DSC/(uV/mg);Sensit./(uV/mW);Segment
34.17636;0.25;0.0;1.0;1
34.17971;0.5;0.0;1.0;1
34.17888;0.75;0.0;1.0;1
34.17688;1.0;0.0;1.0;1
34.17253;1.25;0.0;1.0;1
34.17059;1.5;0.0;1.0;1
34.16876;1.75;0.0;1.0;1
34.16682;2.0;0.0;1.0;1
34.16441;2.25;0.0;1.0;1
34.16576;2.5;0.0;1.0;1
34.17024;2.75;0.0;1.0;1
34.16623;3.0;0.0;1.0;1
34.16288;3.25;0.0;1.0;1
34.16018;3.5;0.0;1.0;1
34.158;3.75;0.0;1.0;1
34.16165;4.0;0.0;1.0;1
34.16312;4.25;0.0;1.0;1
34.16582;4.5;0.0;1.0;1
34.16759;4.75;0.0;1.0;1
34.16271;5.0;0.0;1.0;1
34.15965;5.25;0.0;1.0;1
34.15641;5.5;0.0;1.0;1
34.15535;5.75;0.0;1.0;1
34.15588;6.0;0.0;1.0;1
34.15641;6.25;0.0;1.0;1
34.15753;6.5;0.0;1.0;1
34.15565;6.75;0.0;1.0;1
34.15471;7.0;0.0;1.0;1
34.15547;7.25;0.0;1.0;1
34.15894;7.5;0.0;1.0;1
34.15988;7.75;0.0;1.0;1
34.157;8.0;0.0;1.0;1
34.15382;8.25;0.0;1.0;1
34.15247;8.5;0.0;1.0;1
34.15324;8.75;0.0;1.0;1
34.15406;9.0;0.0;1.0;1
34.15082;9.25;0.0;1.0;1
34.15171;9.5;0.0;1.0;1
34.15165;9.75;0.0;1.0;1
34.15165;10.0;0.0;1.0;1
34.15094;10.25;0.0;1.0;1
34.14553;10.5;0.0;1.0;1
34.14282;10.75;0.0;1.0;1
34.14235;11.0;0.0;1.0;1
34.13906;11.25;0.0;1.0;1
34.13618;11.5;0.0;1.0;1
34.13253;11.75;0.0;1.0;1
34.12859;12.0;0.0;1.0;1
34.12518;12.25;0.0;1.0;1
34.12371;12.5;0.0;1.0;1
34.123;12.75;0.0;1.0;1
34.12447;13.0;0.0;1.0;1
34.12429;13.25;0.0;1.0;1
34.12471;13.5;0.0;1.0;1
34.12024;13.75;0.0;1.0;1
34.115;14.0;0.0;1.0;1
34.10647;14.25;0.0;1.0;1
34.10235;14.5;0.0;1.0;1
34.10264;14.75;0.0;1.0;1
34.11549;15.0;0.0;1.0;2
34.10516;15.25;0.0;1.0;2
34.13672;15.5;0.0;1.0;2
34.23371;15.75;0.0;1.0;2
34.42622;16.0;0.0;1.0;2
34.72104;16.25;0.0;1.0;2
35.12375;16.5;0.0;1.0;2
35.61708;16.75;0.0;1.0;2
36.1925;17.0;0.0;1.0;2
36.83655;17.25;0.0;1.0;2
37.54164;17.5;0.0;1.0;2
38.29774;17.75;0.0;1.0;2
39.09878;18.0;0.0;1.0;2
39.94421;18.25;0.0;1.0;2
40.82469;18.5;0.0;1.0;2
41.7454;18.75;0.0;1.0;2
42.69183;19.0;0.0;1.0;2
43.66753;19.25;0.0;1.0;2
44.66731;19.5;0.0;1.0;2
45.6928;19.75;0.0;1.0;2
46.74168;20.0;0.0;1.0;2
47.8057;20.25;0.0;1.0;2
48.88834;20.5;0.0;1.0;2
49.98967;20.75;0.0;1.0;2
51.10446;21.0;0.0;1.0;2
52.23305;21.25;0.0;1.0;2
53.37523;21.5;0.0;1.0;2
54.5253;21.75;0.0;1.0;2
55.68474;22.0;0.0;1.0;2
56.85935;22.25;0.0;1.0;2
58.04364;22.5;0.0;1.0;2
59.23476;22.75;0.0;1.0;2
60.43665;23.0;0.0;1.0;2
61.64896;23.25;0.0;1.0;2
62.86358;23.5;0.0;1.0;2
64.0847;23.75;0.0;1.0;2
65.30787;24.0;0.0;1.0;2
66.53528;24.25;0.0;1.0;2
67.76738;24.5;0.0;1.0;2
69.00398;24.75;0.0;1.0;2
70.24448;25.0;0.0;1.0;2
71.48621;25.25;0.0;1.0;2
72.72937;25.5;0.0;1.0;2
73.97395;25.75;0.0;1.0;2
75.22398;26.0;0.0;1.0;2
76.46965;26.25;0.0;1.0;2
77.71669;26.5;0.0;1.0;2
78.96561;26.75;0.0;1.0;2
80.21691;27.0;0.0;1.0;2
81.47146;27.25;0.0;1.0;2
82.72618;27.5;0.0;1.0;2
83.9838;27.75;0.0;1.0;2
85.24469;28.0;0.0;1.0;2
86.50762;28.25;0.0;1.0;2
87.77336;28.5;0.0;1.0;2
89.03755;28.75;0.0;1.0;2
90.30329;29.0;0.0;1.0;2
91.5698;29.25;0.0;1.0;2
92.84121;29.5;0.0;1.0;2
94.11325;29.75;0.0;1.0;2
95.38379;30.0;0.0;1.0;2
96.65528;30.25;0.0;1.0;2
97.92917;30.5;0.0;1.0;2
99.20502;30.75;0.0;1.0;2
100.48187;31.0;0.0;1.0;2
101.76103;31.25;0.0;1.0;2
103.0401;31.5;0.0;1.0;2
104.31801;31.75;0.0;1.0;2
105.59486;32.0;0.0;1.0;2
106.87277;32.25;0.0;1.0;2
108.14964;32.5;0.0;1.0;2
109.42405;32.75;0.0;1.0;2
110.69828;33.0;0.0;1.0;2
111.97273;33.25;0.0;1.0;2
113.24768;33.5;0.0;1.0;2
114.5243;33.75;0.0;1.0;2
115.79992;34.0;0.0;1.0;2
117.07061;34.25;0.0;1.0;2
118.34429;34.5;0.0;1.0;2
119.61531;34.75;0.0;1.0;2
120.88649;35.0;0.0;1.0;2
122.16033;35.25;0.0;1.0;2
123.43437;35.5;0.0;1.0;2
124.70811;35.75;0.0;1.0;2
125.98445;36.0;0.0;1.0;2
127.25882;36.25;0.0;1.0;2
128.53598;36.5;0.0;1.0;2
129.81523;36.75;0.0;1.0;2
131.09562;37.0;0.0;1.0;2
132.37539;37.25;0.0;1.0;2
133.6561;37.5;0.0;1.0;2
134.93464;37.75;0.0;1.0;2
136.21274;38.0;0.0;1.0;2
137.49378;38.25;0.0;1.0;2
138.77313;38.5;0.0;1.0;2
140.05453;38.75;0.0;1.0;2
141.33595;39.0;0.0;1.0;2
142.61859;39.25;0.0;1.0;2
143.90183;39.5;0.0;1.0;2
145.18944;39.75;0.0;1.0;2
146.47718;40.0;0.0;1.0;2
147.76393;40.25;0.0;1.0;2
149.05209;40.5;0.0;1.0;2
150.3408;40.75;0.0;1.0;2
151.62972;41.0;0.0;1.0;2
152.91426;41.25;0.0;1.0;2
154.20148;41.5;0.0;1.0;2
155.49062;41.75;0.0;1.0;2
156.77878;42.0;0.0;1.0;2
158.06561;42.25;0.0;1.0;2
159.35196;42.5;0.0;1.0;2
160.63758;42.75;0.0;1.0;2
161.92341;43.0;0.0;1.0;2
163.2086;43.25;0.0;1.0;2
164.4928;43.5;0.0;1.0;2
165.78154;43.75;0.0;1.0;2
167.06936;44.0;0.0;1.0;2
168.34977;44.25;0.0;1.0;2
169.63009;44.5;0.0;1.0;2
170.91554;44.75;0.0;1.0;2
172.19972;45.0;0.0;1.0;2
173.48406;45.25;0.0;1.0;2
174.77172;45.5;0.0;1.0;2
176.05543;45.75;0.0;1.0;2
177.33935;46.0;0.0;1.0;2
178.6242;46.25;0.0;1.0;2
179.90738;46.5;0.0;1.0;2
181.18829;46.75;0.0;1.0;2
182.47006;47.0;0.0;1.0;2
183.75097;47.25;0.0;1.0;2
185.03425;47.5;0.0;1.0;2
186.31782;47.75;0.0;1.0;2
187.59983;48.0;0.0;1.0;2
188.88373;48.25;0.0;1.0;2
190.16923;48.5;0.0;1.0;2
191.45527;48.75;0.0;1.0;2
192.74072;49.0;0.0;1.0;2
194.02732;49.25;0.0;1.0;2
195.31354;49.5;0.0;1.0;2
196.59608;49.75;0.0;1.0;2
197.87824;50.0;0.0;1.0;2
199.16401;50.25;0.0;1.0;2
200.44764;50.5;0.0;1.0;2
201.73136;50.75;0.0;1.0;2
203.01783;51.0;0.0;1.0;2
204.30347;51.25;0.0;1.0;2
205.58928;51.5;0.0;1.0;2
206.87537;51.75;0.0;1.0;2
208.15991;52.0;0.0;1.0;2
209.44345;52.25;0.0;1.0;2
210.72681;52.5;0.0;1.0;2
212.01088;52.75;0.0;1.0;2
213.2936;53.0;0.0;1.0;2
214.5738;53.25;0.0;1.0;2
215.85693;53.5;0.0;1.0;2
217.1376;53.75;0.0;1.0;2
218.41693;54.0;0.0;1.0;2
219.69612;54.25;0.0;1.0;2
220.97422;54.5;0.0;1.0;2
222.25371;54.75;0.0;1.0;2
223.53235;55.0;0.0;1.0;2
224.81021;55.25;0.0;1.0;2
226.09061;55.5;0.0;1.0;2
227.36843;55.75;0.0;1.0;2
228.64768;56.0;0.0;1.0;2
229.92791;56.25;0.0;1.0;2
231.20642;56.5;0.0;1.0;2
232.48561;56.75;0.0;1.0;2
233.76529;57.0;0.0;1.0;2
235.04474;57.25;0.0;1.0;2
236.32303;57.5;0.0;1.0;2
237.60062;57.75;0.0;1.0;2
238.87774;58.0;0.0;1.0;2
240.15528;58.25;0.0;1.0;2
241.43348;58.5;0.0;1.0;2
242.71028;58.75;0.0;1.0;2
243.98549;59.0;0.0;1.0;2
245.26213;59.25;0.0;1.0;2
246.53866;59.5;0.0;1.0;2
247.81596;59.75;0.0;1.0;2
249.09604;60.0;0.0;1.0;2
250.37415;60.25;0.0;1.0;2
251.65413;60.5;0.0;1.0;2
252.93088;60.75;0.0;1.0;2
254.20527;61.0;0.0;1.0;2
255.48188;61.25;0.0;1.0;2
256.75935;61.5;0.0;1.0;2
258.03566;61.75;0.0;1.0;2
259.31061;62.0;0.0;1.0;2
260.5913;62.25;0.0;1.0;2
261.86723;62.5;0.0;1.0;2
263.14207;62.75;0.0;1.0;2
264.4204;63.0;0.0;1.0;2
265.69965;63.25;0.0;1.0;2
266.97776;63.5;0.0;1.0;2
268.25613;63.75;0.0;1.0;2
269.53536;64.0;0.0;1.0;2
270.812;64.25;0.0;1.0;2
272.08608;64.5;0.0;1.0;2
273.35924;64.75;0.0;1.0;2
274.63184;65.0;0.0;1.0;2
275.90614;65.25;0.0;1.0;2
277.18125;65.5;0.0;1.0;2
278.45575;65.75;0.0;1.0;2
279.72908;66.0;0.0;1.0;2
281.00597;66.25;0.0;1.0;2
282.28424;66.5;0.0;1.0;2
283.55969;66.75;0.0;1.0;2
284.83607;67.0;0.0;1.0;2
286.11123;67.25;0.0;1.0;2
287.38776;67.5;0.0;1.0;2
288.66564;67.75;0.0;1.0;2
289.93998;68.0;0.0;1.0;2
291.21275;68.25;0.0;1.0;2
292.48485;68.5;0.0;1.0;2
293.75679;68.75;0.0;1.0;2
295.03095;69.0;0.0;1.0;2
296.30732;69.25;0.0;1.0;2
297.58201;69.5;0.0;1.0;2
298.8559;69.75;0.0;1.0;2
300.12904;70.0;0.0;1.0;2
301.40185;70.25;0.0;1.0;2
302.67501;70.5;0.0;1.0;2
303.94703;70.75;0.0;1.0;2
305.21803;71.0;0.0;1.0;2
306.48649;71.25;0.0;1.0;2
307.75531;71.5;0.0;1.0;2
309.02802;71.75;0.0;1.0;2
310.29853;72.0;0.0;1.0;2
311.56769;72.25;0.0;1.0;2
312.83753;72.5;0.0;1.0;2
314.10683;72.75;0.0;1.0;2
315.37299;73.0;0.0;1.0;2
316.64198;73.25;0.0;1.0;2
317.91197;73.5;0.0;1.0;2
319.1809;73.75;0.0;1.0;2
320.44907;74.0;0.0;1.0;2
321.7193;74.25;0.0;1.0;2
322.98787;74.5;0.0;1.0;2
324.25798;74.75;0.0;1.0;2
325.52625;75.0;0.0;1.0;2
326.7946;75.25;0.0;1.0;2
328.06304;75.5;0.0;1.0;2
329.33185;75.75;0.0;1.0;2
330.59915;76.0;0.0;1.0;2
331.86755;76.25;0.0;1.0;2
333.13933;76.5;0.0;1.0;2
334.40904;76.75;0.0;1.0;2
335.67245;77.0;0.0;1.0;2
336.93544;77.25;0.0;1.0;2
338.20055;77.5;0.0;1.0;2
339.46693;77.75;0.0;1.0;2
340.73428;78.0;0.0;1.0;2
342.00115;78.25;0.0;1.0;2
343.26709;78.5;0.0;1.0;2
344.53291;78.75;0.0;1.0;2
345.80069;79.0;0.0;1.0;2
347.06785;79.25;0.0;1.0;2
348.3319;79.5;0.0;1.0;2
349.59639;79.75;0.0;1.0;2
350.86188;80.0;0.0;1.0;2
352.1271;80.25;0.0;1.0;2
353.39172;80.5;0.0;1.0;2
354.65781;80.75;0.0;1.0;2
355.92307;81.0;0.0;1.0;2
357.18959;81.25;0.0;1.0;2
358.45673;81.5;0.0;1.0;2
359.7225;81.75;0.0;1.0;2
360.98529;82.0;0.0;1.0;2
362.2481;82.25;0.0;1.0;2
363.51337;82.5;0.0;1.0;2
364.77634;82.75;0.0;1.0;2
366.03935;83.0;0.0;1.0;2
367.30312;83.25;0.0;1.0;2
368.56488;83.5;0.0;1.0;2
369.82594;83.75;0.0;1.0;2
371.08644;84.0;0.0;1.0;2
372.3491;84.25;0.0;1.0;2
373.6113;84.5;0.0;1.0;2
374.87039;84.75;0.0;1.0;2
376.13427;85.0;0.0;1.0;2
377.3972;85.25;0.0;1.0;2
378.65996;85.5;0.0;1.0;2
379.92084;85.75;0.0;1.0;2
381.17904;86.0;0.0;1.0;2
382.43822;86.25;0.0;1.0;2
383.69957;86.5;0.0;1.0;2
384.95855;86.75;0.0;1.0;2
386.2178;87.0;0.0;1.0;2
387.47842;87.25;0.0;1.0;2
388.73801;87.5;0.0;1.0;2
389.99809;87.75;0.0;1.0;2
391.25439;88.0;0.0;1.0;2
392.51012;88.25;0.0;1.0;2
393.77304;88.5;0.0;1.0;2
395.0354;88.75;0.0;1.0;2
396.29712;89.0;0.0;1.0;2
397.55643;89.25;0.0;1.0;2
398.81709;89.5;0.0;1.0;2
400.07888;89.75;5.0e-324;1.0;2
401.33978;90.0;1.819733e-317;1.0;2
402.59868;90.25;8.878713652419e-311;1.0;2
403.85839;90.5;3.710282536917515e-304;1.0;2
405.11936;90.75;1.334649526853505e-297;1.0;2
406.37907;91.0;4.0098578702528494e-291;1.0;2
407.63825;91.25;1.0153101515134875e-284;1.0;2
408.90137;91.5;2.2814835992657845e-278;1.0;2
410.15997;91.75;4.125656690896306e-272;1.0;2
411.41797;92.0;6.285666387882934e-266;1.0;2
412.67616;92.25;8.141599078765382e-260;1.0;2
413.93518;92.5;9.027978399113724e-254;1.0;2
415.19164;92.75;8.257807670190213e-248;1.0;2
416.4495;93.0;6.507579051449932e-242;1.0;2
417.70611;93.25;4.293576763640215e-236;1.0;2
418.9638;93.5;2.431469765507702e-230;1.0;2
420.22125;93.75;1.1653565324880957e-224;1.0;2
421.47783;94.0;4.697182856699846e-219;1.0;2
422.7334;94.25;1.5905239822004916e-213;1.0;2
423.98984;94.5;4.6116757276605675e-208;1.0;2
425.24798;94.75;1.1539389937010063e-202;1.0;2
426.50623;95.0;2.452088592489763e-197;1.0;2
427.76242;95.25;4.334081064360612e-192;1.0;2
429.01907;95.5;6.530225300472344e-187;1.0;2
430.27473;95.75;8.27370245981357e-182;1.0;2
431.53449;96.0;9.239157197698143e-177;1.0;2
432.79547;96.25;8.84569357563615e-172;1.0;2
434.05343;96.5;6.988809542791843e-167;1.0;2
435.31265;96.75;4.736525207503412e-162;1.0;2
436.57329;97.0;2.756050887303452e-157;1.0;2
437.83529;97.25;1.3753756609272883e-152;1.0;2
439.09275;97.5;5.599755425003347e-148;1.0;2
440.3477;97.75;1.894840410073805e-143;1.0;2
441.60436;98.0;5.5198980822307505e-139;1.0;2
442.85881;98.25;1.3407900567257865e-134;1.0;2
444.11734;98.5;2.8555643112667883e-130;1.0;2
445.37682;98.75;5.196748639813944e-126;1.0;2
446.63769;99.0;8.1052945441287e-122;1.0;2
447.8979;99.25;1.066408621833182e-117;1.0;2
449.15915;99.5;1.198727537720708e-113;1.0;2
450.41896;99.75;1.1303900819434071e-109;1.0;2
451.67637;100.0;8.886811106044908e-106;1.0;2
452.93349;100.25;5.916151514058159e-102;1.0;2
454.18906;100.5;3.306989586846815e-98;1.0;2
455.4418;100.75;1.5398499253772703e-94;1.0;2
456.69625;101.0;6.159767046584409e-91;1.0;2
457.9502;101.25;2.085652347521206e-87;1.0;2
459.20187;101.5;5.912031232552762e-84;1.0;2
460.45538;101.75;1.4402910192045022e-80;1.0;2
461.71293;102.0;3.053705988882986e-77;1.0;2
462.96792;102.25;5.4110809814636235e-74;1.0;2
464.22181;102.5;8.089298251097118e-71;1.0;2
465.4741;102.75;1.0178197943222041e-67;1.0;2
466.72711;103.0;1.0923993793202015e-64;1.0;2
467.97989;103.25;9.947252607394713e-62;1.0;2
469.23256;103.5;7.690388810210322e-59;1.0;2
470.48607;103.75;5.072772289609688e-56;1.0;2
471.73886;104.0;2.831884585919715e-53;1.0;2
472.99183;104.25;1.3441816452138227e-50;1.0;2
474.24319;104.5;5.378861166434496e-48;1.0;2
475.4947;104.75;1.8304436444896782e-45;1.0;2
476.74682;105.0;5.3078941478962806e-43;1.0;2
477.9978;105.25;1.3013419597251377e-40;1.0;2
479.24884;105.5;2.7123609273647735e-38;1.0;2
480.50127;105.75;4.832066184624258e-36;1.0;2
481.75305;106.0;7.294890206788592e-34;1.0;2
483.00552;106.25;9.382837399327427e-32;1.0;2
484.25633;106.5;1.0190691618291036e-29;1.0;2
485.50699;106.75;9.402389075558286e-28;1.0;2
486.76037;107.0;7.44268202990602e-26;1.0;2
488.01307;107.25;4.992918823420471e-24;1.0;2
489.26592;107.5;2.8468760298914596e-22;1.0;2
490.51994;107.75;1.3838508621792747e-20;1.0;2
491.77211;108.0;5.682145191222764e-19;1.0;2
493.02381;108.25;1.9797598876235325e-17;1.0;2
494.27758;108.5;5.893638628577794e-16;1.0;2
495.53053;108.75;1.487038307043627e-14;1.0;2
496.78162;109.0;3.173160591855067e-13;1.0;2
498.03446;109.25;5.777471520667916e-12;1.0;2
499.28728;109.5;8.935777183670649e-11;1.0;2
500.54115;109.75;1.1765328578753028e-9;1.0;2
501.7957;110.0;1.3172731490022586e-8;1.0;2
503.04837;110.25;1.2482707620029885e-7;1.0;2
504.30081;110.5;1.0045425597373898e-6;1.0;2
505.55352;110.75;6.870884294711594e-6;1.0;2
506.80422;111.0;3.981707127441642e-5;1.0;2
508.05466;111.25;0.00019606421149441895;1.0;2
509.30698;111.5;0.0008223322585644312;1.0;2
510.56153;111.75;0.002936580347528937;1.0;2
511.79767;112.0;0.008771096325197642;1.0;2
513.03393;112.25;0.022353468411441618;1.0;2
514.31439;112.5;0.04982516144280706;1.0;2
515.60267;112.75;0.09397424776093168;1.0;2
516.89114;113.0;0.14917504271405435;1.0;2
518.17694;113.25;0.1991963297652958;1.0;2
519.45943;113.5;0.22398670056234557;1.0;2
520.74009;113.75;0.21233620542852016;1.0;2
522.02135;114.0;0.16972642721527492;1.0;2
523.31841;114.25;0.11371466590901996;1.0;2
524.65846;114.5;0.06257215756405242;1.0;2
526.02518;114.75;0.028074354543768623;1.0;2
527.4373;115.0;0.010003092751158278;1.0;2
528.91427;115.25;0.00272329475150069;1.0;2
530.34023;115.5;0.0006254138670973188;1.0;2
531.69136;115.75;0.0001276747391070171;1.0;2
532.99981;116.0;2.2872825788446654e-5;1.0;2
534.27673;116.25;3.597823117233601e-6;1.0;2
535.53155;116.5;4.954271012768091e-7;1.0;2
536.76971;116.75;5.966282318476278e-8;1.0;2
537.99608;117.0;6.265904708660742e-9;1.0;2
539.21808;117.25;5.678613625100526e-10;1.0;2
540.43685;117.5;4.437470644070488e-11;1.0;2
541.65391;117.75;2.9832543867686063e-12;1.0;2
542.87079;118.0;1.7202381056671378e-13;1.0;2
544.08577;118.25;8.5458050968916e-15;1.0;2
545.2994;118.5;3.654775102236148e-16;1.0;2
546.51408;118.75;1.3373011262373088e-17;1.0;2
547.73081;119.0;4.1727364396540856e-19;1.0;2
548.94731;119.25;1.1171404587395314e-20;1.0;2
550.16303;119.5;2.5708913067340836e-22;1.0;2
551.38091;119.75;5.038181815919252e-24;1.0;2
552.60092;120.0;8.401687898450274e-26;1.0;2
553.823;120.25;1.1915229993304262e-27;1.0;2
555.04616;120.5;1.4411800707745816e-29;1.0;2
556.2706;120.75;1.4849268934846073e-31;1.0;2
557.49705;121.0;1.2989891449333015e-33;1.0;2
558.72281;121.25;9.746326252513839e-36;1.0;2
559.94718;121.5;6.292124292462458e-38;1.0;2
561.17195;121.75;3.4702028669351494e-40;1.0;2
562.39775;122.0;1.630171812397227e-42;1.0;2
563.62401;122.25;6.537200496577967e-45;1.0;2
564.8499;122.5;2.2461822237505497e-47;1.0;2
566.07719;122.75;6.557674288773113e-50;1.0;2
567.30459;123.0;1.6362331208268532e-52;1.0;2
568.53556;123.25;3.428368193713815e-55;1.0;2
569.76588;123.5;6.157677412996809e-58;1.0;2
570.99541;123.75;9.489994567019982e-61;1.0;2
572.22268;124.0;1.2654658892040704e-63;1.0;2
573.45063;124.25;1.4375218730136772e-66;1.0;2
574.68457;124.5;1.3491783560855404e-69;1.0;2
575.91688;124.75;1.0913092798516833e-72;1.0;2
577.14862;125.0;7.564386653787065e-76;1.0;2
578.38872;125.25;4.255907449417906e-79;1.0;2
579.63101;125.5;2.0132052325423947e-82;1.0;2
580.8682;125.75;8.379496737827139e-86;1.0;2
582.1069;126.0;2.9459199179284687e-89;1.0;2
583.34579;126.25;8.81932308785012e-93;1.0;2
584.58099;126.5;2.3077566682392193e-96;1.0;2
585.81596;126.75;5.161534403452587e-100;1.0;2
587.05229;127.0;9.75904564919716e-104;1.0;2
588.2876;127.25;1.5856773866894336e-107;1.0;2
589.52354;127.5;2.188631719774966e-111;1.0;2
590.7589;127.75;2.5885452673031197e-115;1.0;2
591.99843;128.0;2.5319992368990136e-119;1.0;2
593.23967;128.25;2.0838219027500873e-123;1.0;2
594.48051;128.5;1.4658188834822377e-127;1.0;2
595.72253;128.75;8.705010600759476e-132;1.0;2
596.96414;129.0;4.4184838601592664e-136;1.0;2
598.20708;129.25;1.8901511097142163e-140;1.0;2
599.45067;129.5;6.849559083592042e-145;1.0;2
600.69309;129.75;2.1345900429339917e-149;1.0;2
601.93552;130.0;5.6659111132692745e-154;1.0;2
603.17808;130.25;1.279601374489112e-158;1.0;2
604.42145;130.5;2.4440357782389955e-163;1.0;2
605.66623;130.75;3.925584053841703e-168;1.0;2
606.90861;131.0;5.485575619779727e-173;1.0;2
608.15011;131.25;6.582604935587183e-178;1.0;2
609.39333;131.5;6.623003760980304e-183;1.0;2
610.63595;131.75;5.707228924999496e-188;1.0;2
611.87783;132.0;4.2188295800569308e-193;1.0;2
613.12313;132.25;2.5700473459517097e-198;1.0;2
614.36584;132.5;1.3670123194914986e-203;1.0;2
615.6071;132.75;6.283297016269832e-209;1.0;2
616.8482;133.0;2.464760684366101e-214;1.0;2
618.08904;133.25;8.26047140028498e-220;1.0;2
619.3303;133.5;2.3488977363946432e-225;1.0;2
620.57247;133.75;5.63704406589023e-231;1.0;2
621.81521;134.0;1.1454617302964524e-236;1.0;2
623.05379;134.25;2.073088368071294e-242;1.0;2
624.29356;134.5;3.157974133691146e-248;1.0;2
625.534;134.75;4.070396341360506e-254;1.0;2
626.77557;135.0;4.415368012332882e-260;1.0;2
628.01476;135.25;4.1914728855389174e-266;1.0;2
629.25352;135.5;3.4087455197850297e-272;1.0;2
630.49168;135.75;2.3799769630876135e-278;1.0;2
631.72643;136.0;1.4743754390302315e-284;1.0;2
632.96171;136.25;7.746979002953063e-291;1.0;2
634.19639;136.5;3.4986119048944654e-297;1.0;2
635.43054;136.75;1.3571659708587747e-303;1.0;2
636.6665;137.0;4.3962353310631e-310;1.0;2
637.90129;137.25;1.2326308e-316;1.0;2
639.13785;137.5;3.0e-323;1.0;2
640.37426;137.75;0.0;1.0;2
641.61084;138.0;0.0;1.0;2
642.84821;138.25;0.0;1.0;2
644.08657;138.5;0.0;1.0;2
645.32256;138.75;0.0;1.0;2
646.55795;139.0;0.0;1.0;2
647.79259;139.25;0.0;1.0;2
649.02743;139.5;0.0;1.0;2
650.26134;139.75;0.0;1.0;2
651.49313;140.0;0.0;1.0;2
652.72526;140.25;0.0;1.0;2
653.95775;140.5;0.0;1.0;2
655.18763;140.75;0.0;1.0;2
656.4166;141.0;0.0;1.0;2
657.64601;141.25;0.0;1.0;2
658.87412;141.5;0.0;1.0;2
660.10143;141.75;0.0;1.0;2
661.33029;142.0;0.0;1.0;2
662.55916;142.25;0.0;1.0;2
663.78665;142.5;0.0;1.0;2
665.017;142.75;0.0;1.0;2
666.24737;143.0;0.0;1.0;2
667.4744;143.25;0.0;1.0;2
668.70292;143.5;0.0;1.0;2
669.93097;143.75;0.0;1.0;2
671.15414;144.0;0.0;1.0;2
672.37582;144.25;0.0;1.0;2
673.59741;144.5;0.0;1.0;2
674.8184;144.75;0.0;1.0;2
676.03891;145.0;0.0;1.0;2
677.25819;145.25;0.0;1.0;2
678.47688;145.5;0.0;1.0;2
679.69699;145.75;0.0;1.0;2
680.91548;146.0;0.0;1.0;2
682.13134;146.25;0.0;1.0;2
683.34619;146.5;0.0;1.0;2
684.55985;146.75;0.0;1.0;2
685.77544;147.0;0.0;1.0;2
686.98574;147.25;0.0;1.0;2
688.19631;147.5;0.0;1.0;2
689.40668;147.75;0.0;1.0;2
690.61771;148.0;0.0;1.0;2
691.83061;148.25;0.0;1.0;2
693.04255;148.5;0.0;1.0;2
694.25602;148.75;0.0;1.0;2
695.47319;149.0;0.0;1.0;2
696.69398;149.25;0.0;1.0;2
697.91586;149.5;0.0;1.0;2
699.14164;149.75;0.0;1.0;2
700.37065;150.0;0.0;1.0;2
701.60075;150.25;0.0;1.0;2
702.83051;150.5;0.0;1.0;2
704.06034;150.75;0.0;1.0;2
705.29073;151.0;0.0;1.0;2
706.52578;151.25;0.0;1.0;2
707.76142;151.5;0.0;1.0;2
708.99947;151.75;0.0;1.0;2
710.23597;152.0;0.0;1.0;2
711.47132;152.25;0.0;1.0;2
712.7091;152.5;0.0;1.0;2
713.94498;152.75;0.0;1.0;2
715.18051;153.0;0.0;1.0;2
716.41598;153.25;0.0;1.0;2
717.64937;153.5;0.0;1.0;2
718.88539;153.75;0.0;1.0;2
720.12085;154.0;0.0;1.0;2
721.3571;154.25;0.0;1.0;2
722.59216;154.5;0.0;1.0;2
723.82674;154.75;0.0;1.0;2
725.06143;155.0;0.0;1.0;2
726.29598;155.25;0.0;1.0;2
727.53204;155.5;0.0;1.0;2
728.76945;155.75;0.0;1.0;2
730.00617;156.0;0.0;1.0;2
731.24206;156.25;0.0;1.0;2
732.47824;156.5;0.0;1.0;2
733.71248;156.75;0.0;1.0;2
734.95014;157.0;0.0;1.0;2
736.18665;157.25;0.0;1.0;2
737.42311;157.5;0.0;1.0;2
738.66134;157.75;0.0;1.0;2
739.89823;158.0;0.0;1.0;2
741.13524;158.25;0.0;1.0;2
742.37096;158.5;0.0;1.0;2
743.60685;158.75;0.0;1.0;2
744.84184;159.0;0.0;1.0;2
746.0747;159.25;0.0;1.0;2
747.30754;159.5;0.0;1.0;2
748.54211;159.75;0.0;1.0;2
749.77401;160.0;0.0;1.0;2
751.00673;160.25;0.0;1.0;2
752.24085;160.5;0.0;1.0;2
753.47352;160.75;0.0;1.0;2
754.70893;161.0;0.0;1.0;2
755.94445;161.25;0.0;1.0;2
757.17855;161.5;0.0;1.0;2
758.41213;161.75;0.0;1.0;2
759.64654;162.0;0.0;1.0;2
760.88041;162.25;0.0;1.0;2
762.11627;162.5;0.0;1.0;2
763.35118;162.75;0.0;1.0;2
764.58722;163.0;0.0;1.0;2
765.82332;163.25;0.0;1.0;2
767.05869;163.5;0.0;1.0;2
768.29501;163.75;0.0;1.0;2
769.53183;164.0;0.0;1.0;2
770.76952;164.25;0.0;1.0;2
772.00806;164.5;0.0;1.0;2
773.24657;164.75;0.0;1.0;2
774.48443;165.0;0.0;1.0;2
775.72237;165.25;0.0;1.0;2
776.96229;165.5;0.0;1.0;2
778.1998;165.75;0.0;1.0;2
779.43603;166.0;0.0;1.0;2
780.67127;166.25;0.0;1.0;2
781.90496;166.5;0.0;1.0;2
783.13976;166.75;0.0;1.0;2
784.3755;167.0;0.0;1.0;2
785.60911;167.25;0.0;1.0;2
786.84159;167.5;0.0;1.0;2
788.07654;167.75;0.0;1.0;2
789.31232;168.0;0.0;1.0;2
790.54753;168.25;0.0;1.0;2
791.78212;168.5;0.0;1.0;2
793.01725;168.75;0.0;1.0;2
794.25524;169.0;0.0;1.0;2
795.49293;169.25;0.0;1.0;2
796.72949;169.5;0.0;1.0;2
797.96624;169.75;0.0;1.0;2
799.20028;170.0;0.0;1.0;2
800.43547;170.25;0.0;1.0;2
801.67162;170.5;0.0;1.0;2
802.90479;170.75;0.0;1.0;2
804.14132;171.0;0.0;1.0;2
805.37873;171.25;0.0;1.0;2
806.61295;171.5;0.0;1.0;2
807.84551;171.75;0.0;1.0;2
809.07993;172.0;0.0;1.0;2
810.31169;172.25;0.0;1.0;2
811.54371;172.5;0.0;1.0;2
812.77867;172.75;0.0;1.0;2
814.01246;173.0;0.0;1.0;2
815.24484;173.25;0.0;1.0;2
816.47487;173.5;0.0;1.0;2
817.70859;173.75;0.0;1.0;2
818.94354;174.0;0.0;1.0;2
820.17685;174.25;0.0;1.0;2
821.40964;174.5;0.0;1.0;2
822.64283;174.75;0.0;1.0;2
823.87678;175.0;0.0;1.0;2
825.11109;175.25;0.0;1.0;2
826.34589;175.5;0.0;1.0;2
827.57988;175.75;0.0;1.0;2
828.81525;176.0;0.0;1.0;2
830.05052;176.25;0.0;1.0;2
831.28266;176.5;0.0;1.0;2
832.51802;176.75;0.0;1.0;2
833.75179;177.0;0.0;1.0;2
834.98725;177.25;0.0;1.0;2
836.22185;177.5;0.0;1.0;2
837.45499;177.75;0.0;1.0;2
838.69067;178.0;0.0;1.0;2
839.92695;178.25;0.0;1.0;2
841.16239;178.5;0.0;1.0;2
842.39641;178.75;0.0;1.0;2
843.63011;179.0;0.0;1.0;2
844.86589;179.25;0.0;1.0;2
846.10147;179.5;0.0;1.0;2
847.33569;179.75;0.0;1.0;2
848.56946;180.0;0.0;1.0;2
849.80118;180.25;0.0;1.0;2
851.03426;180.5;0.0;1.0;2
852.2652;180.75;0.0;1.0;2
853.49962;181.0;0.0;1.0;2
854.7352;181.25;0.0;1.0;2
855.96932;181.5;0.0;1.0;2
857.20286;181.75;0.0;1.0;2
858.43773;182.0;0.0;1.0;2
859.67186;182.25;0.0;1.0;2
860.90436;182.5;0.0;1.0;2
862.13858;182.75;0.0;1.0;2
863.37203;183.0;0.0;1.0;2
864.60703;183.25;0.0;1.0;2
865.84215;183.5;0.0;1.0;2
867.07611;183.75;0.0;1.0;2
868.31209;184.0;0.0;1.0;2
869.54783;184.25;0.0;1.0;2
870.78276;184.5;0.0;1.0;2
872.0177;184.75;0.0;1.0;2
873.2523;185.0;0.0;1.0;2
874.48665;185.25;0.0;1.0;2
875.72051;185.5;0.0;1.0;2
876.95495;185.75;0.0;1.0;2
878.1884;186.0;0.0;1.0;2
879.42137;186.25;0.0;1.0;2
880.65304;186.5;0.0;1.0;2
881.88662;186.75;0.0;1.0;2
883.12136;187.0;0.0;1.0;2
884.35346;187.25;0.0;1.0;2
885.58682;187.5;0.0;1.0;2
886.82156;187.75;0.0;1.0;2
888.055;188.0;0.0;1.0;2
889.28855;188.25;0.0;1.0;2
890.52117;188.5;0.0;1.0;2
891.75585;188.75;0.0;1.0;2
892.98619;189.0;0.0;1.0;2
894.21612;189.25;0.0;1.0;2
895.45021;189.5;0.0;1.0;2
896.68198;189.75;0.0;1.0;2
897.91234;190.0;0.0;1.0;2
899.14484;190.25;0.0;1.0;2
900.3779;190.5;0.0;1.0;2
901.61041;190.75;0.0;1.0;2
902.84523;191.0;0.0;1.0;2
904.0798;191.25;0.0;1.0;2
905.31537;191.5;0.0;1.0;2
906.55047;191.75;0.0;1.0;2
