#EXPORTTYPE:DATA SINGLE
#FILE:00592013__Al2O3_900_5_N2_20_air_20.ngb-ds1
#FTYPE:ANSI
#IDENTITY:005920
#DECIMAL:POINT
#SEPARATOR:SEMICOLON
#MTYPE:DSC
#PROJECT:
#DATE/TIME:21.07.2025 08:33
#CORR. FILE:005919_bline_Al2O3_900_5_N2_20_air_20.ngb-bs1
#TEMPCAL:TCALZERO.TCX
#SENSITIVITY:SENSZERO.EXX
#LABORATORY: 11
#OPERATOR:
#REMARK:
#SAMPLE:1
#SAMPLE MASS /mg:9.99
#MATERIAL:
#REFERENCE:
#REFERENCE MASS /mg:0
#TYPE OF CRUCIBLE:DSC/TG pan Al2O3
#SAMPLE CRUCIBLE MASS /mg:0
#REFERENCE CRUCIBLE MASS /mg:0
#DSC RANGE /V:5000
#TG RANGE /mg:5000
#TAU-R:---
#CORR. CODE:020
#EXO:+1
#RANGE:35C/00:00/35C/5,0(K/min)/920C/
#SEGMENT:S1-2/2
#SEG. 1:35C/00:15/35C
#SEG. 2:35C/5,0(K/min)/920C

##Temp./C;Time/min;DSC/(uV/mg);Sensit./(uV/mW);Segment
34.17636;0.25;6.0809090894208476e-68;1.0;1
34.17971;0.5;6.0920666720537945e-68;1.0;1
34.17888;0.75;6.089300355872713e-68;1.0;1
34.17688;1.0;6.082639676254192e-68;1.0;1
34.17253;1.25;6.068177762423782e-68;1.0;1
34.17059;1.5;6.061739137189081e-68;1.0;1
34.16876;1.75;6.055671830216896e-68;1.0;1
34.16682;2.0;6.049246431638954e-68;1.0;1
34.16441;2.25;6.041273828276535e-68;1.0;1
34.16576;2.5;6.045738518284926e-68;1.0;1
34.17024;2.75;6.060578254850597e-68;1.0;1
34.16623;3.0;6.0472936635507015e-68;1.0;1
34.16288;3.25;6.036217819129067e-68;1.0;1
34.16018;3.5;6.0273057369461696e-68;1.0;1
34.158;3.75;6.020119626664727e-68;1.0;1
34.16165;4.0;6.032156242837097e-68;1.0;1
34.16312;4.25;6.037010639597935e-68;1.0;1
34.16582;4.5;6.045937025269389e-68;1.0;1
34.16759;4.75;6.0517959049503405e-68;1.0;1
34.16271;5.0;6.035656300756681e-68;1.0;1
34.15965;5.25;6.0255578688008915e-68;1.0;1
34.15641;5.5;6.014883767573371e-68;1.0;1
34.15535;5.75;6.0113957168058255e-68;1.0;1
34.15588;6.0;6.013139490090563e-68;1.0;1
34.15641;6.25;6.014883767573371e-68;1.0;1
34.15753;6.5;6.018571447092893e-68;1.0;1
34.15565;6.75;6.012382696370921e-68;1.0;1
34.15471;7.0;6.009290700129209e-68;1.0;1
34.15547;7.25;6.011790489250633e-68;1.0;1
34.15894;7.5;6.023217176786957e-68;1.0;1
34.15988;7.75;6.026316315558099e-68;1.0;1
34.157;8.0;6.016826103656744e-68;1.0;1
34.15382;8.25;6.006364632564703e-68;1.0;1
34.15247;8.5;6.001928926155951e-68;1.0;1
34.15324;8.75;6.0044585214420574e-68;1.0;1
34.15406;9.0;6.0071535446149025e-68;1.0;1
34.15082;9.25;5.996511941215243e-68;1.0;1
34.15171;9.5;5.999433224402969e-68;1.0;1
34.15165;9.75;5.999236239378427e-68;1.0;1
34.15165;10.0;5.999236239378427e-68;1.0;1
34.15094;10.25;5.996905739381308e-68;1.0;1
34.14553;10.5;5.979177595446939e-68;1.0;1
34.14282;10.75;5.970316786664005e-68;1.0;1
34.14235;11.0;5.968781373636689e-68;1.0;1
34.13906;11.25;5.958044497501075e-68;1.0;1
34.13618;11.5;5.948661455192507e-68;1.0;1
34.13253;11.75;5.93679091215788e-68;1.0;1
34.12859;12.0;5.924003728589331e-68;1.0;1
34.12518;12.25;5.912958812958198e-68;1.0;1
34.12371;12.5;5.908203848758627e-68;1.0;1
34.123;12.75;5.9059085986027115e-68;1.0;1
34.12447;13.0;5.910661721526545e-68;1.0;1
34.12429;13.25;5.910079501672071e-68;1.0;1
34.12471;13.5;5.911438103599893e-68;1.0;1
34.12024;13.75;5.8969946575264e-68;1.0;1
34.115;14.0;5.880107971566336e-68;1.0;1
34.10647;14.25;5.852721803611779e-68;1.0;1
34.10235;14.5;5.839539823274028e-68;1.0;1
34.10264;14.75;5.840466712114344e-68;1.0;1
34.11549;15.0;5.881685024996749e-68;1.0;2
34.10516;15.25;5.848527232846832e-68;1.0;2
34.13672;15.5;5.950419652969216e-68;1.0;2
34.23371;15.75;6.27476189488169e-68;1.0;2
34.42622;16.0;6.9716492091586935e-68;1.0;2
34.72104;16.25;8.191273169529978e-68;1.0;2
35.12375;16.5;1.020776908196945e-67;1.0;2
35.61708;16.75;1.3363658124222277e-67;1.0;2
36.1925;17.0;1.82918973522719e-67;1.0;2
36.83655;17.25;2.5982912585556167e-67;1.0;2
37.54164;17.5;3.8138525607990025e-67;1.0;2
38.29774;17.75;5.752630690050822e-67;1.0;2
39.09878;18.0;8.886220058327055e-67;1.0;2
39.94421;18.25;1.4052090237675045e-66;1.0;2
40.82469;18.5;2.2630661433726897e-66;1.0;2
41.7454;18.75;3.721875016756731e-66;1.0;2
42.69183;19.0;6.201424381930413e-66;1.0;2
43.66753;19.25;1.0487818337265064e-65;1.0;2
44.66731;19.5;1.7951319682460216e-65;1.0;2
45.6928;19.75;3.112248976511139e-65;1.0;2
46.74168;20.0;5.45816557850016e-65;1.0;2
47.8057;20.25;9.639825385038909e-65;1.0;2
48.88834;20.5;1.7176196685696084e-64;1.0;2
49.98967;20.75;3.0875288328271296e-64;1.0;2
51.10446;21.0;5.5832815848104746e-64;1.0;2
52.23305;21.25;1.0158319719717911e-63;1.0;2
53.37523;21.5;1.859260510225679e-63;1.0;2
54.5253;21.75;3.4128652119322337e-63;1.0;2
55.68474;22.0;6.287608722268395e-63;1.0;2
56.85935;22.25;1.1661351847372581e-62;1.0;2
58.04364;22.5;2.170886607383118e-62;1.0;2
59.23476;22.75;4.050311717851477e-62;1.0;2
60.43665;23.0;7.589017358629573e-62;1.0;2
61.64896;23.25;1.4276869773418167e-61;1.0;2
62.86358;23.5;2.685252577814135e-61;1.0;2
64.0847;23.75;5.0603627875254244e-61;1.0;2
65.30787;24.0;9.532637989904795e-61;1.0;2
66.53528;24.25;1.7970785669475477e-60;1.0;2
67.76738;24.5;3.3910765966927895e-60;1.0;2
69.00398;24.75;6.404349960935846e-60;1.0;2
70.24448;25.0;1.2101491928845098e-59;1.0;2
71.48621;25.25;2.2847061151411616e-59;1.0;2
72.72937;25.5;4.310143363192138e-59;1.0;2
73.97395;25.75;8.124910467035418e-59;1.0;2
75.22398;26.0;1.5335469700359597e-58;1.0;2
76.46965;26.25;2.8837746060111403e-58;1.0;2
77.71669;26.5;5.4184518851759745e-58;1.0;2
78.96561;26.75;1.0175324735182061e-57;1.0;2
80.21691;27.0;1.9102345675292414e-57;1.0;2
81.47146;27.25;3.586544612530983e-57;1.0;2
82.72618;27.5;6.724229284872811e-57;1.0;2
83.9838;27.75;1.2605991769590148e-56;1.0;2
85.24469;28.0;2.363497624759729e-56;1.0;2
86.50762;28.25;4.429007998989267e-56;1.0;2
87.77336;28.5;8.298380463756718e-56;1.0;2
89.03755;28.75;1.5512275069675845e-55;1.0;2
90.30329;29.0;2.897471266353777e-55;1.0;2
91.5698;29.25;5.405740629569064e-55;1.0;2
92.84121;29.5;1.0093977916798592e-54;1.0;2
94.11325;29.75;1.8824580831898085e-54;1.0;2
95.38379;30.0;3.502608314926013e-54;1.0;2
96.65528;30.25;6.510008728339287e-54;1.0;2
97.92917;30.5;1.2094825468356335e-53;1.0;2
99.20502;30.75;2.2456872136732025e-53;1.0;2
100.48187;31.0;4.1651050445689155e-53;1.0;2
101.76103;31.25;7.721510479449923e-53;1.0;2
103.0401;31.5;1.429135563043685e-52;1.0;2
104.31801;31.75;2.6394703044946373e-52;1.0;2
105.59486;32.0;4.864687663682554e-52;1.0;2
106.87277;32.25;8.956304557493102e-52;1.0;2
108.14964;32.5;1.645518770975987e-51;1.0;2
109.42405;32.75;3.014990505180744e-51;1.0;2
110.69828;33.0;5.515066948919382e-51;1.0;2
111.97273;33.25;1.0073482996550135e-50;1.0;2
113.24768;33.5;1.8375089309185437e-50;1.0;2
114.5243;33.75;3.3491763137978197e-50;1.0;2
115.79992;34.0;6.091994687127556e-50;1.0;2
117.07061;34.25;1.103819991352238e-49;1.0;2
118.34429;34.5;1.9996994152798517e-49;1.0;2
119.61531;34.75;3.612550034452425e-49;1.0;2
120.88649;35.0;6.516547701186832e-49;1.0;2
122.16033;35.25;1.1751071149615514e-48;1.0;2
123.43437;35.5;2.1159076887778988e-48;1.0;2
124.70811;35.75;3.8034280195679555e-48;1.0;2
125.98445;36.0;6.834250724145572e-48;1.0;2
127.25882;36.25;1.2249885310411624e-47;1.0;2
128.53598;36.5;2.1950506035842717e-47;1.0;2
129.81523;36.75;3.930842930234222e-47;1.0;2
131.09562;37.0;7.031775078457982e-47;1.0;2
132.37539;37.25;1.2555521844377416e-46;1.0;2
133.6561;37.5;2.2392455715325312e-46;1.0;2
134.93464;37.75;3.983425208853221e-46;1.0;2
136.21274;38.0;7.07359490959923e-46;1.0;2
137.49378;38.25;1.2557690404692927e-45;1.0;2
138.77313;38.5;2.224147056842661e-45;1.0;2
140.05453;38.75;3.936650056037785e-45;1.0;2
141.33595;39.0;6.956731059147001e-45;1.0;2
142.61859;39.25;1.2280874033140464e-44;1.0;2
143.90183;39.5;2.165101296147015e-44;1.0;2
145.18944;39.75;3.8183125600408727e-44;1.0;2
146.47718;40.0;6.7234789458442665e-44;1.0;2
147.76393;40.25;1.1814978107425166e-43;1.0;2
149.05209;40.5;2.074170324665964e-43;1.0;2
150.3408;40.75;3.6363340528689614e-43;1.0;2
151.62972;41.0;6.365405099411468e-43;1.0;2
152.91426;41.25;1.1103724768985546e-42;1.0;2
154.20148;41.5;1.9360705138279548e-42;1.0;2
155.49062;41.75;3.373162099025245e-42;1.0;2
156.77878;42.0;5.86507600572703e-42;1.0;2
158.06561;42.25;1.0175764960727474e-41;1.0;2
159.35196;42.5;1.7622885028559205e-41;1.0;2
160.63758;42.75;3.046197744135278e-41;1.0;2
161.92341;43.0;5.257563475214807e-41;1.0;2
163.2086;43.25;9.057325311160017e-41;1.0;2
164.4928;43.5;1.5571892839747163e-40;1.0;2
165.78154;43.75;2.678054401353618e-40;1.0;2
167.06936;44.0;4.596564431603483e-40;1.0;2
168.34977;44.25;7.852495095921158e-40;1.0;2
169.63009;44.5;1.3393004733083714e-39;1.0;2
170.91554;44.75;2.2855235038383976e-39;1.0;2
172.19972;45.0;3.891992078419141e-39;1.0;2
173.48406;45.25;6.617517899455146e-39;1.0;2
174.77172;45.5;1.124914693150765e-38;1.0;2
176.05543;45.75;1.9060965604295247e-38;1.0;2
177.33935;46.0;3.224900018325923e-38;1.0;2
178.6242;46.25;5.449552064609275e-38;1.0;2
179.90738;46.5;9.187938668265662e-38;1.0;2
181.18829;46.75;1.5452017935553568e-37;1.0;2
182.47006;47.0;2.5954637678401274e-37;1.0;2
183.75097;47.25;4.351161008253548e-37;1.0;2
185.03425;47.5;7.289879811540909e-37;1.0;2
186.31782;47.75;1.2195376428085155e-36;1.0;2
187.59983;48.0;2.0356757919032615e-36;1.0;2
188.88373;48.25;3.395151128537142e-36;1.0;2
190.16923;48.5;5.6570980880844996e-36;1.0;2
191.45527;48.75;9.412995214077116e-36;1.0;2
192.74072;49.0;1.563389658114911e-35;1.0;2
194.02732;49.25;2.5936400303108017e-35;1.0;2
195.31354;49.5;4.2952968103031934e-35;1.0;2
196.59608;49.75;7.091838901053391e-35;1.0;2
197.87824;50.0;1.16888111254079e-34;1.0;2
199.16401;50.25;1.9261953739976927e-34;1.0;2
200.44764;50.5;3.1664857665412895e-34;1.0;2
201.73136;50.75;5.197310301619455e-34;1.0;2
203.01783;51.0;8.526038290718022e-34;1.0;2
204.30347;51.25;1.3959943695116871e-33;1.0;2
205.58928;51.5;2.282206325238091e-33;1.0;2
206.87537;51.75;3.725451304872069e-33;1.0;2
208.15991;52.0;6.068115271696948e-33;1.0;2
209.44345;52.25;9.864440949239339e-33;1.0;2
210.72681;52.5;1.6009236518354067e-32;1.0;2
212.01088;52.75;2.59473891174937e-32;1.0;2
213.2936;53.0;4.1966782348557146e-32;1.0;2
214.5738;53.25;6.770477579657236e-32;1.0;2
215.85693;53.5;1.091738175338875e-31;1.0;2
217.1376;53.75;1.7560271908254086e-31;1.0;2
218.41693;54.0;2.8186496824480074e-31;1.0;2
219.69612;54.25;4.516916412392163e-31;1.0;2
220.97422;54.5;7.224087249629822e-31;1.0;2
222.25371;54.75;1.154142331920739e-30;1.0;2
223.53235;55.0;1.840409885930037e-30;1.0;2
224.81021;55.25;2.9292804247082727e-30;1.0;2
226.09061;55.5;4.659309348245126e-30;1.0;2
227.36843;55.75;7.392483916140725e-30;1.0;2
228.64768;56.0;1.1716489435898297e-29;1.0;2
229.92791;56.25;1.8546868846662063e-29;1.0;2
231.20642;56.5;2.9294735611900533e-29;1.0;2
232.48561;56.75;4.6209146294732806e-29;1.0;2
233.76529;57.0;7.27872557855473e-29;1.0;2
235.04474;57.25;1.1446179486916496e-28;1.0;2
236.32303;57.5;1.7963947361570703e-28;1.0;2
237.60062;57.75;2.814174003789207e-28;1.0;2
238.87774;58.0;4.400926420103784e-28;1.0;2
240.15528;58.25;6.872529702384235e-28;1.0;2
241.43348;58.5;1.0717759245293571e-27;1.0;2
242.71028;58.75;1.667999019659067e-27;1.0;2
243.98549;59.0;2.590393990808638e-27;1.0;2
245.26213;59.25;4.018527644883239e-27;1.0;2
246.53866;59.5;6.223978721507472e-27;1.0;2
247.81596;59.75;9.627193284637151e-27;1.0;2
249.09604;60.0;1.488185186864828e-26;1.0;2
250.37415;60.25;2.2952891249090836e-26;1.0;2
251.65413;60.5;3.5367666993465323e-26;1.0;2
252.93088;60.75;5.435217886080596e-26;1.0;2
254.20527;61.0;8.332986689152007e-26;1.0;2
255.48188;61.25;1.2765113432606115e-25;1.0;2
256.75935;61.5;1.9529410458063938e-25;1.0;2
258.03566;61.75;2.9819632927111902e-25;1.0;2
259.31061;62.0;4.54399011107223e-25;1.0;2
260.5913;62.25;6.926432461174218e-25;1.0;2
261.86723;62.5;1.0524881845943786e-24;1.0;2
263.14207;62.75;1.59620110092635e-24;1.0;2
264.4204;63.0;2.419739441647379e-24;1.0;2
265.69965;63.25;3.6634766634123444e-24;1.0;2
266.97776;63.5;5.535695617938274e-24;1.0;2
268.25613;63.75;8.352221557202914e-24;1.0;2
269.53536;64.0;1.2585363964364488e-23;1.0;2
270.812;64.25;1.8918412364538586e-23;1.0;2
272.08608;64.5;2.8370502387583185e-23;1.0;2
273.35924;64.75;4.246607400429087e-23;1.0;2
274.63184;65.0;6.345424243008993e-23;1.0;2
275.90614;65.25;9.471778104748465e-23;1.0;2
277.18125;65.5;1.4119884699882932e-22;1.0;2
278.45575;65.75;2.101194742302622e-22;1.0;2
279.72908;66.0;3.120775686820888e-22;1.0;2
281.00597;66.25;4.632934334150631e-22;1.0;2
282.28424;66.5;6.869895867823034e-22;1.0;2
283.55969;66.75;1.016210264317352e-21;1.0;2
284.83607;67.0;1.50126670834549e-21;1.0;2
286.11123;67.25;2.213541893532942e-21;1.0;2
287.38776;67.5;3.2599852851618577e-21;1.0;2
288.66564;67.75;4.795531155115458e-21;1.0;2
289.93998;68.0;7.035764726400235e-21;1.0;2
291.21275;68.25;1.0301509481788943e-20;1.0;2
292.48485;68.5;1.5056508628316047e-20;1.0;2
293.75679;68.75;2.1970922123523517e-20;1.0;2
295.03095;69.0;3.203157849091211e-20;1.0;2
296.30732;69.25;4.6656226353151206e-20;1.0;2
297.58201;69.5;6.781782840530513e-20;1.0;2
298.8559;69.75;9.840004083212426e-20;1.0;2
300.12904;70.0;1.4251854997316462e-19;1.0;2
301.40185;70.25;2.0607540664768773e-19;1.0;2
302.67501;70.5;2.9753984800523403e-19;1.0;2
303.94703;70.75;4.287876358597613e-19;1.0;2
305.21803;71.0;6.167855873841882e-19;1.0;2
306.48649;71.25;8.85187040616809e-19;1.0;2
307.75531;71.5;1.268543015144661e-18;1.0;2
309.02802;71.75;1.8170883149028986e-18;1.0;2
310.29853;72.0;2.5971641447812264e-18;1.0;2
311.56769;72.25;3.704946208362659e-18;1.0;2
312.83753;72.5;5.278018013800003e-18;1.0;2
314.10683;72.75;7.50617203133224e-18;1.0;2
315.37299;73.0;1.064913877441838e-17;1.0;2
316.64198;73.25;1.5096463820301728e-17;1.0;2
317.91197;73.5;2.1373671208578684e-17;1.0;2
319.1809;73.75;3.0205169599299264e-17;1.0;2
320.44907;74.0;4.261069886968956e-17;1.0;2
321.7193;74.25;6.005131508384112e-17;1.0;2
322.98787;74.5;8.446099280254742e-17;1.0;2
324.25798;74.75;1.1865701052065403e-16;1.0;2
325.52625;75.0;1.663571735234355e-16;1.0;2
326.7946;75.25;2.3287568043790383e-16;1.0;2
328.06304;75.5;3.2549343260201126e-16;1.0;2
329.33185;75.75;4.542841100172495e-16;1.0;2
330.59915;76.0;6.327999927283275e-16;1.0;2
331.86755;76.25;8.8035078700806225e-16;1.0;2
333.13933;76.5;1.2239103029499386e-15;1.0;2
334.40904;76.75;1.6979844777388008e-15;1.0;2
335.67245;77.0;2.3482326887348235e-15;1.0;2
336.93544;77.25;3.2421455629698133e-15;1.0;2
338.20055;77.5;4.471860448038918e-15;1.0;2
339.46693;77.75;6.160440933292032e-15;1.0;2
340.73428;78.0;8.4755606132571e-15;1.0;2
342.00115;78.25;1.1641239784900515e-14;1.0;2
343.26709;78.5;1.596086284672246e-14;1.0;2
344.53291;78.75;2.184883866447039e-14;1.0;2
345.80069;79.0;2.9877058114966424e-14;1.0;2
347.06785;79.25;4.0785626393603e-14;1.0;2
348.3319;79.5;5.554866592961555e-14;1.0;2
349.59639;79.75;7.554682984832522e-14;1.0;2
350.86188;80.0;1.0261077484506991e-13;1.0;2
352.1271;80.25;1.3914569306733318e-13;1.0;2
353.39172;80.5;1.8837047806346679e-13;1.0;2
354.65781;80.75;2.5470461056663884e-13;1.0;2
355.92307;81.0;3.437978353840777e-13;1.0;2
357.18959;81.25;4.634753812186205e-13;1.0;2
358.45673;81.5;6.239364442113228e-13;1.0;2
359.7225;81.75;8.383821374966941e-13;1.0;2
360.98529;82.0;1.1240145394827111e-12;1.0;2
362.2481;82.25;1.504648099382279e-12;1.0;2
363.51337;82.5;2.0122123893594105e-12;1.0;2
364.77634;82.75;2.6854280383929102e-12;1.0;2
366.03935;83.0;3.578393245790222e-12;1.0;2
367.30312;83.25;4.761764300785727e-12;1.0;2
368.56488;83.5;6.32385692089613e-12;1.0;2
369.82594;83.75;8.384179433459322e-12;1.0;2
371.08644;84.0;1.1097319213109873e-11;1.0;2
372.3491;84.25;1.46729029810834e-11;1.0;2
373.6113;84.5;1.9368742485517106e-11;1.0;2
374.87039;84.75;2.5510788326766334e-11;1.0;2
376.13427;85.0;3.3584016189193364e-11;1.0;2
377.3972;85.25;4.4134918276767734e-11;1.0;2
378.65996;85.5;5.790914293325547e-11;1.0;2
379.92084;85.75;7.583486975524162e-11;1.0;2
381.17904;86.0;9.91007762126472e-11;1.0;2
382.43822;86.25;1.2933344833682563e-10;1.0;2
383.69957;86.5;1.6860759445617017e-10;1.0;2
384.95855;86.75;2.1936206227626824e-10;1.0;2
386.2178;87.0;2.849740620660932e-10;1.0;2
387.47842;87.25;3.697486033074138e-10;1.0;2
388.73801;87.5;4.789052010199481e-10;1.0;2
389.99809;87.75;6.19398806834348e-10;1.0;2
391.25439;88.0;7.992690474389543e-10;1.0;2
392.51012;88.25;1.0296836006065515e-9;1.0;2
393.77304;88.5;1.3264086865301088e-9;1.0;2
395.0354;88.75;1.7058214087348753e-9;1.0;2
396.29712;89.0;2.1901125561435833e-9;1.0;2
397.55643;89.25;2.8062486257996197e-9;1.0;2
398.81709;89.5;3.5911618566290593e-9;1.0;2
400.07888;89.75;4.589572957524632e-9;1.0;2
401.33978;90.0;5.85554462079203e-9;1.0;2
402.59868;90.25;7.456399837405702e-9;1.0;2
403.85839;90.5;9.481852346749513e-9;1.0;2
405.11936;90.75;1.2041897736240591e-8;1.0;2
406.37907;91.0;1.526606068048547e-8;1.0;2
407.63825;91.25;1.9321928152065515e-8;1.0;2
408.90137;91.5;2.443576313110015e-8;1.0;2
410.15997;91.75;3.082980476638424e-8;1.0;2
411.41797;92.0;3.883323092499219e-8;1.0;2
412.67616;92.25;4.8841323959419854e-8;1.0;2
413.93518;92.5;6.134403371983954e-8;1.0;2
415.19164;92.75;7.689411033524539e-8;1.0;2
416.4495;93.0;9.626309796185238e-8;1.0;2
417.70611;93.25;1.2030036225635947e-7;1.0;2
418.9638;93.5;1.5013917087664736e-7;1.0;2
420.22125;93.75;1.8708519003995059e-7;1.0;2
421.47783;94.0;2.3273201639700966e-7;1.0;2
422.7334;94.25;2.890247966075782e-7;1.0;2
423.98984;94.5;3.5844068866436985e-7;1.0;2
425.24798;94.75;4.4397902237820787e-7;1.0;2
426.50623;95.0;5.491002648820555e-7;1.0;2
427.76242;95.25;6.778401512943545e-7;1.0;2
429.01907;95.5;8.355532515047917e-7;1.0;2
430.27473;95.75;1.0282240960560483e-6;1.0;2
431.53449;96.0;1.2642444316012992e-6;1.0;2
432.79547;96.25;1.5523676010842563e-6;1.0;2
434.05343;96.5;1.9023041559722101e-6;1.0;2
435.31265;96.75;2.3280321849688726e-6;1.0;2
436.57329;97.0;2.845317018430314e-6;1.0;2
437.83529;97.25;3.4729509387982508e-6;1.0;2
439.09275;97.5;4.229516717496539e-6;1.0;2
440.3477;97.75;5.14103679686751e-6;1.0;2
441.60436;98.0;6.241143969825488e-6;1.0;2
442.85881;98.25;7.562561384116208e-6;1.0;2
444.11734;98.5;9.15548958809442e-6;1.0;2
445.37682;98.75;1.1068575892374776e-5;1.0;2
446.63769;99.0;1.3363689318559043e-5;1.0;2
447.8979;99.25;1.6108378011217118e-5;1.0;2
449.15915;99.5;1.9389973184508406e-5;1.0;2
450.41896;99.75;2.329938931723894e-5;1.0;2
451.67637;100.0;2.7944481804993792e-5;1.0;2
452.93349;100.25;3.3463116841585e-5;1.0;2
454.18906;100.5;4.0001707622846006e-5;1.0;2
455.4418;100.75;4.772620732270358e-5;1.0;2
456.69625;101.0;5.686962144030419e-5;1.0;2
457.9502;101.25;6.765715154450694e-5;1.0;2
459.20187;101.5;8.034376020809611e-5;1.0;2
460.45538;101.75;9.528876459627106e-5;1.0;2
461.71293;102.0;0.00011290358452292548;1.0;2
462.96792;102.25;0.0001335249625455952;1.0;2
464.22181;102.5;0.00015764984461106413;1.0;2
465.4741;102.75;0.00018581225072068845;1.0;2
466.72711;103.0;0.00021869446415870327;1.0;2
467.97989;103.25;0.00025699806148805074;1.0;2
469.23256;103.5;0.00030154872661677836;1.0;2
470.48607;103.75;0.00035332374168475333;1.0;2
471.73886;104.0;0.00041332348076621926;1.0;2
472.99183;104.25;0.00048279040607776785;1.0;2
474.24319;104.5;0.0005629673671959738;1.0;2
475.4947;104.75;0.0006554790937753855;1.0;2
476.74682;105.0;0.0007620951344329076;1.0;2
477.9978;105.25;0.0008845923846839293;1.0;2
479.24884;105.5;0.0010252359186325658;1.0;2
480.50127;105.75;0.001186637373883402;1.0;2
481.75305;106.0;0.0013712663553173824;1.0;2
483.00552;106.25;0.0015823494675900039;1.0;2
484.25633;106.5;0.0018228203642321943;1.0;2
485.50699;106.75;0.002096630109832808;1.0;2
486.76037;107.0;0.002408649979688025;1.0;2
488.01307;107.25;0.0027627045774757386;1.0;2
489.26592;107.5;0.003164054532054157;1.0;2
490.51994;107.75;0.003618671430230628;1.0;2
491.77211;108.0;0.004131522714693624;1.0;2
493.02381;108.25;0.004709688732392058;1.0;2
494.27758;108.5;0.005361786280127475;1.0;2
495.53053;108.75;0.006094403815163924;1.0;2
496.78162;109.0;0.00691533674923029;1.0;2
498.03446;109.25;0.007836357953431778;1.0;2
499.28728;109.5;0.008866576088618386;1.0;2
500.54115;109.75;0.010018054129777;1.0;2
501.7957;110.0;0.011302630736777413;1.0;2
503.04837;110.25;0.012730295051952431;1.0;2
504.30081;110.5;0.014316269756537462;1.0;2
505.55352;110.75;0.016075854811522926;1.0;2
506.80422;111.0;0.018021080118176293;1.0;2
508.05466;111.25;0.02017071520533386;1.0;2
509.30698;111.5;0.0225464409665444;1.0;2
510.56153;111.75;0.02516872357948443;1.0;2
511.79767;112.0;0.028008989954994987;1.0;2
513.03393;112.25;0.031124125158332867;1.0;2
514.31439;112.5;0.03466238593469641;1.0;2
515.60267;112.75;0.0385665924548177;1.0;2
516.89114;113.0;0.04284247855455535;1.0;2
518.17694;113.25;0.04750606543834859;1.0;2
519.45943;113.5;0.05257958979584318;1.0;2
520.74009;113.75;0.058094361792051054;1.0;2
522.02135;114.0;0.06408887092539658;1.0;2
523.31841;114.25;0.07067336679936947;1.0;2
524.65846;114.5;0.07805406184162773;1.0;2
526.02518;114.75;0.08622196609290465;1.0;2
527.4373;115.0;0.0953790730151268;1.0;2
528.91427;115.25;0.10578069000814844;1.0;2
530.34023;115.5;0.1166645627485108;1.0;2
531.69136;115.75;0.12777696666213076;1.0;2
532.99981;116.0;0.13931188191683455;1.0;2
534.27673;116.25;0.15133063082242376;1.0;2
535.53155;116.5;0.16389934753681115;1.0;2
536.76971;116.75;0.17705988250142782;1.0;2
537.99608;117.0;0.1908577543289198;1.0;2
539.21808;117.25;0.20537889485491462;1.0;2
540.43685;117.5;0.2206448195602751;1.0;2
541.65391;117.75;0.2366825290911002;1.0;2
542.87079;118.0;0.2535204321492233;1.0;2
544.08577;118.25;0.2711399025550321;1.0;2
545.2994;118.5;0.2895498225880289;1.0;2
546.51408;118.75;0.30878714865637635;1.0;2
547.73081;119.0;0.32886814335494874;1.0;2
548.94731;119.25;0.3497505486061196;1.0;2
550.16303;119.5;0.3714135090319023;1.0;2
551.38091;119.75;0.3938961543737909;1.0;2
552.60092;120.0;0.41718301954326475;1.0;2
553.823;120.25;0.4412532246218029;1.0;2
555.04616;120.5;0.4660616746826426;1.0;2
556.2706;120.75;0.4915811131307234;1.0;2
557.49705;121.0;0.5177910646965845;1.0;2
558.72281;121.25;0.5445914250578519;1.0;2
559.94718;121.5;0.571917015860075;1.0;2
561.17195;121.75;0.5997538675498826;1.0;2
562.39775;122.0;0.6280589823078907;1.0;2
563.62401;122.25;0.6567569509565931;1.0;2
564.8499;122.5;0.685760702685781;1.0;2
566.07719;122.75;0.7150402408373268;1.0;2
567.30459;123.0;0.7444886724880375;1.0;2
568.53556;123.25;0.7741087768388965;1.0;2
569.76588;123.5;0.8037145476118133;1.0;2
570.99541;123.75;0.8332145930706236;1.0;2
572.22268;124.0;0.8624834063263084;1.0;2
573.45063;124.25;0.8914984880097888;1.0;2
574.68457;124.5;0.9202873113940674;1.0;2
575.91688;124.75;0.948572658897636;1.0;2
577.14862;125.0;0.976281661397585;1.0;2
578.38872;125.25;1.0035098173795869;1.0;2
579.63101;125.5;1.030012340100682;1.0;2
580.8682;125.75;1.0555367920505367;1.0;2
582.1069;126.0;1.0801251229473339;1.0;2
583.34579;126.25;1.1036529326224198;1.0;2
584.58099;126.5;1.1259579048559618;1.0;2
585.81596;126.75;1.1470183240692278;1.0;2
587.05229;127.0;1.166773643745002;1.0;2
588.2876;127.25;1.1851037603681485;1.0;2
589.52354;127.5;1.201957188647843;1.0;2
590.7589;127.75;1.217246226001522;1.0;2
591.99843;128.0;1.2309573381069001;1.0;2
593.23967;128.25;1.242992352853751;1.0;2
594.48051;128.5;1.253275635338964;1.0;2
595.72253;128.75;1.261773402263227;1.0;2
596.96414;129.0;1.2684355731748473;1.0;2
598.20708;129.25;1.273239834306977;1.0;2
599.45067;129.5;1.2761576680146323;1.0;2
600.69309;129.75;1.2771729621419925;1.0;2
601.93552;130.0;1.2762848006184997;1.0;2
603.17808;130.25;1.2734967460983282;1.0;2
604.42145;130.5;1.2688175829712904;1.0;2
605.66623;130.75;1.262260915254678;1.0;2
606.90861;131.0;1.253878168161754;1.0;2
608.15011;131.25;1.243703425634323;1.0;2
609.39333;131.5;1.2317584128166386;1.0;2
610.63595;131.75;1.21811532343037;1.0;2
611.87783;132.0;1.2028376989930745;1.0;2
613.12313;132.25;1.1859351830676186;1.0;2
614.36584;132.5;1.1675599408483204;1.0;2
615.6071;132.75;1.1477800374724192;1.0;2
616.8482;133.0;1.1266601747011058;1.0;2
618.08904;133.25;1.1042896245423048;1.0;2
619.3303;133.5;1.0807466918789201;1.0;2
620.57247;133.75;1.0561144359404517;1.0;2
621.81521;134.0;1.030494713657613;1.0;2
623.05379;134.25;1.004087774038905;1.0;2
624.29356;134.5;0.9768825038664309;1.0;2
625.534;134.75;0.9489892176737657;1.0;2
626.77557;135.0;0.9204971505728687;1.0;2
628.01476;135.25;0.8915880629599082;1.0;2
629.25352;135.5;0.8623172089111767;1.0;2
630.49168;135.75;0.8327864773581479;1.0;2
631.72643;136.0;0.8031590292237722;1.0;2
632.96171;136.25;0.7734330704569589;1.0;2
634.19639;136.5;0.743724822269944;1.0;2
635.43054;136.75;0.7141181581853329;1.0;2
636.6665;137.0;0.6846390896374711;1.0;2
637.90129;137.25;0.655436720171654;1.0;2
639.13785;137.5;0.6265154230886809;1.0;2
640.37426;137.75;0.5979899112741879;1.0;2
641.61084;138.0;0.56991722945188;1.0;2
642.84821;138.25;0.5423433734285824;1.0;2
644.08657;138.5;0.5153195807020782;1.0;2
645.32256;138.75;0.48896751678340883;1.0;2
646.55795;139.0;0.4632912474623012;1.0;2
647.79259;139.25;0.43833161775646257;1.0;2
649.02743;139.5;0.4141026771885231;1.0;2
650.26134;139.75;0.39065463407285933;1.0;2
651.49313;140.0;0.36803100384680265;1.0;2
652.72526;140.25;0.3462038988114104;1.0;2
653.95775;140.5;0.32518810498373146;1.0;2
655.18763;140.75;0.30504209778159963;1.0;2
656.4166;141.0;0.28574041489630736;1.0;2
657.64601;141.25;0.2672634111857108;1.0;2
658.87412;141.5;0.2496347508841616;1.0;2
660.10143;141.75;0.2328401301652936;1.0;2
661.33029;142.0;0.21683999357439887;1.0;2
662.55916;142.25;0.20164489900061752;1.0;2
663.78665;142.5;0.1872570359856031;1.0;2
665.017;142.75;0.1736120662452501;1.0;2
666.24737;143.0;0.16072600191137773;1.0;2
667.4744;143.25;0.1486109764648913;1.0;2
668.70292;143.5;0.13719604758237808;1.0;2
669.93097;143.75;0.1264773817584276;1.0;2
671.15414;144.0;0.11646506771507226;1.0;2
672.37582;144.25;0.10710153399428454;1.0;2
673.59741;144.5;0.09834955325295336;1.0;2
674.8184;144.75;0.09018654954893453;1.0;2
676.03891;145.0;0.08258495998774486;1.0;2
677.25819;145.25;0.07552222505286539;1.0;2
678.47688;145.5;0.06896745979120945;1.0;2
679.69699;145.75;0.06288450597464618;1.0;2
680.91548;146.0;0.05726287028287466;1.0;2
682.13134;146.25;0.052079832465396526;1.0;2
683.34619;146.5;0.04730215603003833;1.0;2
684.55985;146.75;0.04290570671776155;1.0;2
685.77544;147.0;0.03885639200672625;1.0;2
686.98574;147.25;0.03515454233597741;1.0;2
688.19631;147.5;0.03175967651934039;1.0;2
689.40668;147.75;0.028652558528275057;1.0;2
690.61771;148.0;0.025811386994973266;1.0;2
691.83061;148.25;0.023215210739590646;1.0;2
693.04255;148.5;0.020852301633521843;1.0;2
694.25602;148.75;0.018700758893993807;1.0;2
695.47319;149.0;0.016741707768950294;1.0;2
696.69398;149.25;0.014961430836343208;1.0;2
697.91586;149.5;0.013349866486352752;1.0;2
699.14164;149.75;0.011890317967374336;1.0;2
700.37065;150.0;0.010571698150418286;1.0;2
701.60075;150.25;0.009384612159781733;1.0;2
702.83051;150.5;0.008318935310425607;1.0;2
704.06034;150.75;0.007363457160117842;1.0;2
705.29073;151.0;0.006507838732718473;1.0;2
706.52578;151.25;0.005740503621905678;1.0;2
707.76142;151.5;0.005055881477196211;1.0;2
708.99947;151.75;0.004445226349796122;1.0;2
710.23597;152.0;0.0039031848828062574;1.0;2
711.47132;152.25;0.0034226023573819967;1.0;2
712.7091;152.5;0.002995983966101549;1.0;2
713.94498;152.75;0.002619208580893864;1.0;2
715.18051;153.0;0.002286529405112229;1.0;2
716.41598;153.25;0.001993177953018076;1.0;2
717.64937;153.5;0.001735310104462874;1.0;2
718.88539;153.75;0.001508133046356757;1.0;2
720.12085;154.0;0.0013088486207705604;1.0;2
721.3571;154.25;0.0011341198458339888;1.0;2
722.59216;154.5;0.0009814049140508929;1.0;2
723.82674;154.75;0.0008480519240424269;1.0;2
725.06143;155.0;0.0007317312005723119;1.0;2
726.29598;155.25;0.0006304470452344835;1.0;2
727.53204;155.5;0.0005422830410021345;1.0;2
728.76945;155.75;0.0004656826367999603;1.0;2
730.00617;156.0;0.0003993458722130187;1.0;2
731.24206;156.25;0.00034198906828589984;1.0;2
732.47824;156.5;0.00029242770466850925;1.0;2
733.71248;156.75;0.00024974224615289707;1.0;2
734.95014;157.0;0.00021287956460251764;1.0;2
736.18665;157.25;0.00018121691415005936;1.0;2
737.42311;157.5;0.00015403698349286682;1.0;2
738.66134;157.75;0.00013070962761966586;1.0;2
739.89823;158.0;0.00011077078587226569;1.0;2
741.13524;158.25;9.373333838475266e-5;1.0;2
742.37096;158.5;7.921322709082423e-5;1.0;2
743.60685;158.75;6.68421805619267e-5;1.0;2
744.84184;159.0;5.632707624367273e-5;1.0;2
746.0747;159.25;4.74104298099264e-5;1.0;2
747.30754;159.5;3.984687217847069e-5;1.0;2
748.54211;159.75;3.3432570722307956e-5;1.0;2
749.77401;160.0;2.802030713066948e-5;1.0;2
751.00673;160.25;2.3447024970360128e-5;1.0;2
752.24085;160.5;1.9587373457398023e-5;1.0;2
753.47352;160.75;1.6342507368912018e-5;1.0;2
754.70893;161.0;1.3609646178572636e-5;1.0;2
755.94445;161.25;1.1316903403863746e-5;1.0;2
757.17855;161.5;9.398558427987575e-6;1.0;2
758.41213;161.75;7.794538802823677e-6;1.0;2
759.64654;162.0;6.453955412022421e-6;1.0;2
760.88041;162.25;5.336525635105246e-6;1.0;2
762.11627;162.5;4.404716018872613e-6;1.0;2
763.35118;162.75;3.630791867711274e-6;1.0;2
764.58722;163.0;2.987909487798845e-6;1.0;2
765.82332;163.25;2.4552092030663183e-6;1.0;2
767.05869;163.5;2.0147426279854323e-6;1.0;2
768.29501;163.75;1.6506070957099217e-6;1.0;2
769.53183;164.0;1.3501788009514789e-6;1.0;2
770.76952;164.25;1.1026435429010696e-6;1.0;2
772.00806;164.5;8.990324149412845e-7;1.0;2
773.24657;164.75;7.319379684704164e-7;1.0;2
774.48443;165.0;5.950824598124458e-7;1.0;2
775.72237;165.25;4.830937285975597e-7;1.0;2
776.96229;165.5;3.914681656742235e-7;1.0;2
778.1998;165.75;3.1688086459048644e-7;1.0;2
779.43603;166.0;2.5618231095558744e-7;1.0;2
780.67127;166.25;2.068406660215156e-7;1.0;2
781.90496;166.5;1.6680170142641083e-7;1.0;2
783.13976;166.75;1.3428937968311023e-7;1.0;2
784.3755;167.0;1.0793713156181884e-7;1.0;2
785.60911;167.25;8.666120160351154e-8;1.0;2
786.84159;167.5;6.949097584189393e-8;1.0;2
788.07654;167.75;5.5616139120329925e-8;1.0;2
789.31232;168.0;4.443936818366658e-8;1.0;2
790.54753;168.25;3.546007956509855e-8;1.0;2
791.78212;168.5;2.8256685618522948e-8;1.0;2
793.01725;168.75;2.2481217099619592e-8;1.0;2
794.25524;169.0;1.7850333689706554e-8;1.0;2
795.49293;169.25;1.4153194701354168e-8;1.0;2
796.72949;169.5;1.120760846480162e-8;1.0;2
797.96624;169.75;8.861644000822951e-9;1.0;2
799.20028;170.0;7.000026084837278e-9;1.0;2
800.43547;170.25;5.520137482856653e-9;1.0;2
801.67162;170.5;4.345895045594503e-9;1.0;2
802.90479;170.75;3.4183798118370367e-9;1.0;2
804.14132;171.0;2.6830997837522193e-9;1.0;2
805.37873;171.25;2.102502023075447e-9;1.0;2
806.61295;171.5;1.6461493156682386e-9;1.0;2
807.84551;171.75;1.2873815134455605e-9;1.0;2
809.07993;172.0;1.0049524180734899e-9;1.0;2
810.31169;172.25;7.837515124144789e-10;1.0;2
811.54371;172.5;6.103119326392936e-10;1.0;2
812.77867;172.75;4.742716127289289e-10;1.0;2
814.01246;173.0;3.681012822450064e-10;1.0;2
815.24484;173.25;2.8536182314585134e-10;1.0;2
816.47487;173.5;2.2100393507015724e-10;1.0;2
817.70859;173.75;1.7077868241839424e-10;1.0;2
818.94354;174.0;1.317395779957487e-10;1.0;2
820.17685;174.25;1.0151029875101842e-10;1.0;2
821.40964;174.5;7.811133203634838e-11;1.0;2
822.64283;174.75;6.001271181840106e-11;1.0;2
823.87678;175.0;4.6032378187990104e-11;1.0;2
825.11109;175.25;3.525421052450518e-11;1.0;2
826.34589;175.5;2.6957097720047273e-11;1.0;2
827.57988;175.75;2.0586038016740278e-11;1.0;2
828.81525;176.0;1.5692843427295082e-11;1.0;2
830.05052;176.25;1.1945379844714828e-11;1.0;2
831.28266;176.5;9.085752867836922e-12;1.0;2
832.51802;176.75;6.895598803381416e-12;1.0;2
833.75179;177.0;5.227551338648377e-12;1.0;2
834.98725;177.25;3.955670016011077e-12;1.0;2
836.22185;177.5;2.9894169569816793e-12;1.0;2
837.45499;177.75;2.2566205345510507e-12;1.0;2
838.69067;178.0;1.6999619082215245e-12;1.0;2
839.92695;178.25;1.2785542350367457e-12;1.0;2
841.16239;178.5;9.603791540595334e-13;1.0;2
842.39641;178.75;7.205597503380292e-13;1.0;2
843.63011;179.0;5.398723786069526e-13;1.0;2
844.86589;179.25;4.0370188452384274e-13;1.0;2
846.10147;179.5;3.0144663286293734e-13;1.0;2
847.33569;179.75;2.2483317476696284e-13;1.0;2
848.56946;180.0;1.67462725017784e-13;1.0;2
849.80118;180.25;1.2460962248093362e-13;1.0;2
851.03426;180.5;9.255626613080506e-14;1.0;2
852.2652;180.75;6.868281176467908e-14;1.0;2
853.49962;181.0;5.084939028779239e-14;1.0;2
854.7352;181.25;3.7580335907712714e-14;1.0;2
855.96932;181.5;2.7742876750937354e-14;1.0;2
857.20286;181.75;2.0453415982699887e-14;1.0;2
858.43773;182.0;1.505213714571263e-14;1.0;2
859.67186;182.25;1.1062956598427598e-14;1.0;2
860.90436;182.5;8.122379082615514e-15;1.0;2
862.13858;182.75;5.952090218098919e-15;1.0;2
863.37203;183.0;4.356137795843408e-15;1.0;2
864.60703;183.25;3.1821743467228357e-15;1.0;2
865.84215;183.5;2.321096531692979e-15;1.0;2
867.07611;183.75;1.6910331604148511e-15;1.0;2
868.31209;184.0;1.2295483555995717e-15;1.0;2
869.54783;184.25;8.92740761538906e-16;1.0;2
870.78276;184.5;6.473755887316153e-16;1.0;2
872.0177;184.75;4.68755550869876e-16;1.0;2
873.2523;185.0;3.389500265658927e-16;1.0;2
874.48665;185.25;2.4474524259205913e-16;1.0;2
875.72051;185.5;1.764859977478591e-16;1.0;2
876.95495;185.75;1.2705754057488984e-16;1.0;2
878.1884;186.0;9.136222125484221e-17;1.0;2
879.42137;186.25;6.560709195625858e-17;1.0;2
880.65304;186.5;4.70597792765697e-17;1.0;2
881.88662;186.75;3.368894344097808e-17;1.0;2
883.12136;187.0;2.4074051050964465e-17;1.0;2
884.35346;187.25;1.719038205152007e-17;1.0;2
885.58682;187.5;1.2252777426164106e-17;1.0;2
886.82156;187.75;8.717257363248437e-18;1.0;2
888.055;188.0;6.195014902172443e-18;1.0;2
889.28855;188.25;4.395956228293931e-18;1.0;2
890.52117;188.5;3.1155815842232056e-18;1.0;2
891.75585;188.75;2.2036169474208204e-18;1.0;2
892.98619;189.0;1.5582088727321886e-18;1.0;2
894.21612;189.25;1.1003497536110285e-18;1.0;2
895.45021;189.5;7.749737881731914e-19;1.0;2
896.68198;189.75;5.453715045845795e-19;1.0;2
897.91234;190.0;3.833868349852981e-19;1.0;2
899.14484;190.25;2.689546714815326e-19;1.0;2
900.3779;190.5;1.883707229531727e-19;1.0;2
901.61041;190.75;1.3175871654561388e-19;1.0;2
902.84523;191.0;9.196347297065217e-20;1.0;2
904.0798;191.25;6.409786810972978e-20;1.0;2
905.31537;191.5;4.4596903522236664e-20;1.0;2
906.55047;191.75;3.098744312672894e-20;1.0;2
