#EXPORTTYPE:DATA SINGLE
#FILE:00592013__Al2O3_900_5_N2_20_air_20.ngb-ds1
#FTYPE:ANSI
#IDENTITY:005920
#DECIMAL:POINT
#SEPARATOR:SEMICOLON
#MTYPE:DSC
#PROJECT:
#DATE/TIME:21.07.2025 08:33
#CORR. FILE:005919_bline_Al2O3_900_5_N2_20_air_20.ngb-bs1
#TEMPCAL:TCALZERO.TCX
#SENSITIVITY:SENSZERO.EXX
#LABORATORY: 11
#OPERATOR:
#REMARK:
#SAMPLE:1
#SAMPLE MASS /mg:9.99
#MATERIAL:
#REFERENCE:
#REFERENCE MASS /mg:0
#TYPE OF CRUCIBLE:DSC/TG pan Al2O3
#SAMPLE CRUCIBLE MASS /mg:0
#REFERENCE CRUCIBLE MASS /mg:0
#DSC RANGE /V:5000
#TG RANGE /mg:5000
#TAU-R:---
#CORR. CODE:020
#EXO:+1
#RANGE:35C/00:00/35C/5,0(K/min)/920C/
#SEGMENT:S1-2/2
#SEG. 1:35C/00:15/35C
#SEG. 2:35C/5,0(K/min)/920C

##Temp./C;Time/min;DSC/(uV/mg);Sensit./(uV/mW);Segment
34.17636;0.25;2.2651267786552678e-141;1.0;1
34.17971;0.5;2.2747956724225112e-141;1.0;1
34.17888;0.75;2.2723962624066366e-141;1.0;1
34.17688;1.0;2.2666249270902984e-141;1.0;1
34.17253;1.25;2.2541227553282376e-141;1.0;1
34.17059;1.5;2.2485692974755557e-141;1.0;1
34.16876;1.75;2.2433432479876596e-141;1.0;1
34.16682;2.0;2.2378163066329742e-141;1.0;1
34.16441;2.25;2.2309692957912615e-141;1.0;1
34.16576;2.5;2.2348021773800533e-141;1.0;1
34.17024;2.75;2.2475688405749514e-141;1.0;1
34.16623;3.0;2.2361381304006264e-141;1.0;1
34.16288;3.25;2.226633297378083e-141;1.0;1
34.16018;3.5;2.2190020514194924e-141;1.0;1
34.158;3.75;2.212859585354625e-141;1.0;1
34.16165;4.0;2.2231535967186308e-141;1.0;1
34.16312;4.25;2.2273128971555044e-141;1.0;1
34.16582;4.5;2.234972680190884e-141;1.0;1
34.16759;4.75;2.2400083604528104e-141;1.0;1
34.16271;5.0;2.22615203947275e-141;1.0;1
34.15965;5.25;2.2175071350690642e-141;1.0;1
34.15641;5.5;2.208390239160383e-141;1.0;1
34.15535;5.75;2.2054156833171694e-141;1.0;1
34.15588;6.0;2.2069024608588057e-141;1.0;1
34.15641;6.25;2.208390239160383e-141;1.0;1
34.15753;6.5;2.2115375184574066e-141;1.0;1
34.15565;6.75;2.2062571326371096e-141;1.0;1
34.15471;7.0;2.203621662218903e-141;1.0;1
34.15547;7.25;2.205752224586978e-141;1.0;1
34.15894;7.5;2.2155060869686783e-141;1.0;1
34.15988;7.75;2.218155748811885e-141;1.0;1
34.157;8.0;2.2100476231287182e-141;1.0;1
34.15382;8.25;2.2011292734371677e-141;1.0;1
34.15247;8.5;2.1973540554108437e-141;1.0;1
34.15324;8.75;2.1995065350870853e-141;1.0;1
34.15406;9.0;2.2018011009796046e-141;1.0;1
34.15082;9.25;2.1927486785648275e-141;1.0;1
34.15171;9.5;2.1952315924396952e-141;1.0;1
34.15165;9.75;2.195064116779688e-141;1.0;1
34.15165;10.0;2.195064116779688e-141;1.0;1
34.15094;10.25;2.1930832898554324e-141;1.0;1
34.14553;10.5;2.1780484412401425e-141;1.0;1
34.14282;10.75;2.1705558537051352e-141;1.0;1
34.14235;11.0;2.1692590224208676e-141;1.0;1
34.13906;11.25;2.1602028388911327e-141;1.0;1
34.13618;11.5;2.1523062289488066e-141;1.0;1
34.13253;11.75;2.1423397695336194e-141;1.0;1
34.12859;12.0;2.131633164966823e-141;1.0;1
34.12518;12.25;2.1224099273264373e-141;1.0;1
34.12371;12.5;2.1184462285212145e-141;1.0;1
34.123;12.75;2.1165344368030775e-141;1.0;1
34.12447;13.0;2.1204945640932398e-141;1.0;1
34.12429;13.25;2.1200092533418974e-141;1.0;1
34.12471;13.5;2.1211418176501287e-141;1.0;1
34.12024;13.75;2.1091190327585808e-141;1.0;1
34.115;14.0;2.0951118128010433e-141;1.0;1
34.10647;14.25;2.0725083753580694e-141;1.0;1
34.10235;14.5;2.0616782551476826e-141;1.0;1
34.10264;14.75;2.062438717251585e-141;1.0;1
34.11549;15.0;2.096417702011415e-141;1.0;2
34.10516;15.25;2.0690586726440518e-141;1.0;2
34.13672;15.5;2.1537846447432067e-141;1.0;2
34.23371;15.75;2.4364620955806785e-141;1.0;2
34.42622;16.0;3.111949122678733e-141;1.0;2
34.72104;16.25;4.5259154689289734e-141;1.0;2
35.12375;16.5;7.54673313090955e-141;1.0;2
35.61708;16.75;1.4110402493246265e-140;1.0;2
36.1925;17.0;2.925571005883124e-140;1.0;2
36.83655;17.25;6.610363282348605e-140;1.0;2
37.54164;17.5;1.6116702271315002e-139;1.0;2
38.29774;17.75;4.185327897030715e-139;1.0;2
39.09878;18.0;1.148524679582731e-138;1.0;2
39.94421;18.25;3.327295374991978e-138;1.0;2
40.82469;18.5;1.0054726913995974e-137;1.0;2
41.7454;18.75;3.1892947274735483e-137;1.0;2
42.69183;19.0;1.042474870079246e-136;1.0;2
43.66753;19.25;3.526368802270116e-136;1.0;2
44.66731;19.5;1.2262563801091981e-135;1.0;2
45.6928;19.75;4.391649624818869e-135;1.0;2
46.74168;20.0;1.6148481239241236e-134;1.0;2
47.8057;20.25;6.033644788378883e-134;1.0;2
48.88834;20.5;2.3003060832711167e-133;1.0;2
49.98967;20.75;8.947902416024156e-133;1.0;2
51.10446;21.0;3.527992018703835e-132;1.0;2
52.23305;21.25;1.4103827341978045e-131;1.0;2
53.37523;21.5;5.714617383191064e-131;1.0;2
54.5253;21.75;2.3302678103294317e-130;1.0;2
55.68474;22.0;9.579575321874747e-130;1.0;2
56.85935;22.25;3.9979122404792496e-129;1.0;2
58.04364;22.5;1.6823616223822554e-128;1.0;2
59.23476;22.75;7.113296429125367e-128;1.0;2
60.43665;23.0;3.0361622876948897e-127;1.0;2
61.64896;23.25;1.307544950465925e-126;1.0;2
62.86358;23.5;5.6259860288633e-126;1.0;2
64.0847;23.75;2.4306353227827816e-125;1.0;2
65.30787;24.0;1.0487867044431654e-124;1.0;2
66.53528;24.25;4.531323821079906e-124;1.0;2
67.76738;24.5;1.961321371699496e-123;1.0;2
69.00398;24.75;8.502401677101225e-123;1.0;2
70.24448;25.0;3.688737177718956e-122;1.0;2
71.48621;25.25;1.5965220725568498e-121;1.0;2
72.72937;25.5;6.894938158174668e-121;1.0;2
73.97395;25.75;2.97120888101305e-120;1.0;2
75.22398;26.0;1.2835821145257837e-119;1.0;2
76.46965;26.25;5.495565306591154e-119;1.0;2
77.71669;26.5;2.347527377627588e-118;1.0;2
78.96561;26.75;1.001082427381048e-117;1.0;2
80.21691;27.0;4.264159075792614e-117;1.0;2
81.47146;27.25;1.8160486059055646e-116;1.0;2
82.72618;27.5;7.705487497662932e-116;1.0;2
83.9838;27.75;3.267463654699841e-115;1.0;2
85.24469;28.0;1.385260250042618e-114;1.0;2
86.50762;28.25;5.863259340204511e-114;1.0;2
87.77336;28.5;2.479739363734919e-113;1.0;2
89.03755;28.75;1.042731091024229e-112;1.0;2
90.30329;29.0;4.374894066241257e-112;1.0;2
91.5698;29.25;1.8297979023654767e-111;1.0;2
92.84121;29.5;7.664676715708875e-111;1.0;2
94.11325;29.75;3.199919055098493e-110;1.0;2
95.38379;30.0;1.3283151364002216e-109;1.0;2
96.65528;30.25;5.497603019851562e-109;1.0;2
97.92917;30.5;2.272230082021747e-108;1.0;2
99.20502;30.75;9.373807154672858e-108;1.0;2
100.48187;31.0;3.855629243705555e-107;1.0;2
101.76103;31.25;1.5834826434278606e-106;1.0;2
103.0401;31.5;6.476113077099808e-106;1.0;2
104.31801;31.75;2.634447186654382e-105;1.0;2
105.59486;32.0;1.0660825299405426e-104;1.0;2
106.87277;32.25;4.3015641626074344e-104;1.0;2
108.14964;32.5;1.7266353042153743e-103;1.0;2
109.42405;32.75;6.884136833772171e-103;1.0;2
110.69828;33.0;2.7330848265444133e-102;1.0;2
111.97273;33.25;1.0809344497446172e-101;1.0;2
113.24768;33.5;4.260081793640975e-101;1.0;2
114.5243;33.75;1.675139339960187e-100;1.0;2
115.79992;34.0;6.553198420010896e-100;1.0;2
117.07061;34.25;2.5398745155278097e-99;1.0;2
118.34429;34.5;9.835556256038517e-99;1.0;2
119.61531;34.75;3.7827213077463076e-98;1.0;2
120.88649;35.0;1.4492110435208511e-97;1.0;2
122.16033;35.25;5.545263357941172e-97;1.0;2
123.43437;35.5;2.11370601606088e-96;1.0;2
124.70811;35.75;8.021784664298212e-96;1.0;2
125.98445;36.0;3.04029284002573e-95;1.0;2
127.25882;36.25;1.1452615042278674e-94;1.0;2
128.53598;36.5;4.309118723956419e-94;1.0;2
129.81523;36.75;1.6182337554593551e-93;1.0;2
131.09562;37.0;6.059399456265699e-93;1.0;2
132.37539;37.25;2.2582092988436132e-92;1.0;2
133.6561;37.5;8.389592222633286e-92;1.0;2
134.93464;37.75;3.097262603247155e-91;1.0;2
136.21274;38.0;1.1382788903923197e-90;1.0;2
137.49378;38.25;4.178712550025305e-90;1.0;2
138.77313;38.5;1.5251605670300593e-89;1.0;2
140.05453;38.75;5.5553428967287254e-89;1.0;2
141.33595;39.0;2.0152769052607253e-88;1.0;2
142.61859;39.25;7.289682647956052e-88;1.0;2
143.90183;39.5;2.6275975668820854e-87;1.0;2
145.18944;39.75;9.473511580552826e-87;1.0;2
146.47718;40.0;3.401900657507552e-86;1.0;2
147.76393;40.25;1.2153732478382952e-85;1.0;2
149.05209;40.5;4.3301771192155317e-85;1.0;2
150.3408;40.75;1.5372237914312303e-84;1.0;2
151.62972;41.0;5.43572180858761e-84;1.0;2
152.91426;41.25;1.905993516390179e-83;1.0;2
154.20148;41.5;6.673103956496807e-83;1.0;2
155.49062;41.75;2.3310183871841914e-82;1.0;2
156.77878;42.0;8.10122835336134e-82;1.0;2
158.06561;42.25;2.8002787155808116e-81;1.0;2
159.35196;42.5;9.635104805894282e-81;1.0;2
160.63758;42.75;3.299245689225849e-80;1.0;2
161.92341;43.0;1.1252987632517664e-79;1.0;2
163.2086;43.25;3.820011316499438e-79;1.0;2
164.4928;43.5;1.290220489419801e-78;1.0;2
165.78154;43.75;4.358474577810754e-78;1.0;2
167.06936;44.0;1.4649709232096893e-77;1.0;2
168.34977;44.25;4.869804560545005e-77;1.0;2
169.63009;44.5;1.612056139410353e-76;1.0;2
170.91554;44.75;5.340033060705666e-76;1.0;2
172.19972;45.0;1.759563870500509e-75;1.0;2
173.48406;45.25;5.77487271151045e-75;1.0;2
174.77172;45.5;1.8932968838616196e-74;1.0;2
176.05543;45.75;6.159192926338151e-74;1.0;2
177.33935;46.0;1.9958397822346366e-73;1.0;2
178.6242;46.25;6.446266817750787e-73;1.0;2
179.90738;46.5;2.0703453125104435e-72;1.0;2
181.18829;46.75;6.608463294994985e-72;1.0;2
182.47006;47.0;2.102403177127154e-71;1.0;2
183.75097;47.25;6.656024264194159e-71;1.0;2
185.03425;47.5;2.1030814435877917e-70;1.0;2
186.31782;47.75;6.619484950286241e-70;1.0;2
187.59983;48.0;2.072068704805304e-69;1.0;2
188.88373;48.25;6.470366908709239e-69;1.0;2
190.16923;48.5;2.0150205676613985e-68;1.0;2
191.45527;48.75;6.252368924274548e-68;1.0;2
192.74072;49.0;1.9310443708376512e-67;1.0;2
194.02732;49.25;5.945442887385384e-67;1.0;2
195.31354;49.5;1.8223763680482217e-66;1.0;2
196.59608;49.75;5.545162200844236e-66;1.0;2
197.87824;50.0;1.679827563855709e-65;1.0;2
199.16401;50.25;5.0837081723240256e-65;1.0;2
200.44764;50.5;1.529354770888992e-64;1.0;2
201.73136;50.75;4.5822929975335187e-64;1.0;2
203.01783;51.0;1.370522056960603e-63;1.0;2
204.30347;51.25;4.079337923805395e-63;1.0;2
205.58928;51.5;1.209382425265301e-62;1.0;2
206.87537;51.75;3.5714730415432094e-62;1.0;2
208.15991;52.0;1.0489972079486753e-61;1.0;2
209.44345;52.25;3.0658450419590136e-61;1.0;2
210.72681;52.5;8.922262758235605e-61;1.0;2
212.01088;52.75;2.587434590388881e-60;1.0;2
213.2936;53.0;7.46436454453055e-60;1.0;2
214.5738;53.25;2.1400985572677623e-59;1.0;2
215.85693;53.5;6.125460125919094e-59;1.0;2
217.1376;53.75;1.7425619470782147e-58;1.0;2
218.41693;54.0;4.931593853272721e-58;1.0;2
219.69612;54.25;1.38983361224515e-57;1.0;2
220.97422;54.5;3.897473135639987e-57;1.0;2
222.25371;54.75;1.0897241601237114e-56;1.0;2
223.53235;55.0;3.032356727793504e-56;1.0;2
224.81021;55.25;8.398504995887838e-56;1.0;2
226.09061;55.5;2.3212796018722553e-55;1.0;2
227.36843;55.75;6.3766302363480314e-55;1.0;2
228.64768;56.0;1.7465174849333686e-54;1.0;2
229.92791;56.25;4.7677516554476974e-54;1.0;2
231.20642;56.5;1.2944790257337984e-53;1.0;2
232.48561;56.75;3.5021405116600504e-53;1.0;2
233.76529;57.0;9.439796605643982e-53;1.0;2
235.04474;57.25;2.5336078627072014e-52;1.0;2
236.32303;57.5;6.766359601982738e-52;1.0;2
237.60062;57.75;1.7987344572745763e-51;1.0;2
238.87774;58.0;4.760517967383621e-51;1.0;2
240.15528;58.25;1.2551950107505754e-50;1.0;2
241.43348;58.5;3.297728500081982e-50;1.0;2
242.71028;58.75;8.619671923955997e-50;1.0;2
243.98549;59.0;2.241211457174707e-49;1.0;2
245.26213;59.25;5.8099757846110705e-49;1.0;2
246.53866;59.5;1.499903883257772e-48;1.0;2
247.81596;59.75;3.858626376317711e-48;1.0;2
249.09604;60.0;9.906508399593706e-48;1.0;2
250.37415;60.25;2.529332397109193e-47;1.0;2
251.65413;60.5;6.440385780310277e-47;1.0;2
252.93088;60.75;1.629386296573138e-46;1.0;2
254.20527;61.0;4.098535816835913e-46;1.0;2
255.48188;61.25;1.0284091268517565e-45;1.0;2
256.75935;61.5;2.571601050709636e-45;1.0;2
258.03566;61.75;6.399012776203235e-45;1.0;2
259.31061;62.0;1.5842994117277198e-44;1.0;2
260.5913;62.25;3.92247276839771e-44;1.0;2
261.86723;62.5;9.639421131296177e-44;1.0;2
263.14207;62.75;2.3574671230036337e-43;1.0;2
264.4204;63.0;5.756180140988421e-43;1.0;2
265.69965;63.25;1.4006465810923069e-42;1.0;2
266.97776;63.5;3.3916167597777465e-42;1.0;2
268.25613;63.75;8.18072012039043e-42;1.0;2
269.53536;64.0;1.966346250976816e-41;1.0;2
270.812;64.25;4.698817419375585e-41;1.0;2
272.08608;64.5;1.1163409193413795e-40;1.0;2
273.35924;64.75;2.6398288538857732e-40;1.0;2
274.63184;65.0;6.214899456074994e-40;1.0;2
275.90614;65.25;1.4589145994640567e-39;1.0;2
277.18125;65.5;3.412707198269429e-39;1.0;2
278.45575;65.75;7.947493122172981e-39;1.0;2
279.72908;66.0;1.8418982819580854e-38;1.0;2
281.00597;66.25;4.261441251649599e-38;1.0;2
282.28424;66.5;9.828122320593567e-38;1.0;2
283.55969;66.75;2.2532965507177967e-37;1.0;2
284.83607;67.0;5.1482935116567365e-37;1.0;2
286.11123;67.25;1.1705811820193737e-36;1.0;2
287.38776;67.5;2.6531227068087232e-36;1.0;2
288.66564;67.75;5.99403783099111e-36;1.0;2
289.93998;68.0;1.345668304945911e-35;1.0;2
291.21275;68.25;3.005844511277451e-35;1.0;2
292.48485;68.5;6.684306958721828e-35;1.0;2
293.75679;68.75;1.4802958298373904e-34;1.0;2
295.03095;69.0;3.269525539520755e-34;1.0;2
296.30732;69.25;7.20200072441023e-34;1.0;2
297.58201;69.5;1.5783649551465924e-33;1.0;2
298.8559;69.75;3.443403585262328e-33;1.0;2
300.12904;70.0;7.47844255569007e-33;1.0;2
301.40185;70.25;1.6172996245421993e-32;1.0;2
302.67501;70.5;3.4842139880336456e-32;1.0;2
303.94703;70.75;7.470776028568747e-32;1.0;2
305.21803;71.0;1.5944426190662492e-31;1.0;2
306.48649;71.25;3.3841372166471437e-31;1.0;2
307.75531;71.5;7.155412204345418e-31;1.0;2
309.02802;71.75;1.5103058436363936e-30;1.0;2
310.29853;72.0;3.170901768367794e-30;1.0;2
311.56769;72.25;6.625385521037956e-30;1.0;2
312.83753;72.5;1.379314381936746e-29;1.0;2
314.10683;72.75;2.8591232481091116e-29;1.0;2
315.37299;73.0;5.892222382575626e-29;1.0;2
316.64198;73.25;1.211388380428939e-28;1.0;2
317.91197;73.5;2.481912225395359e-28;1.0;2
319.1809;73.75;5.061544049909084e-28;1.0;2
320.44907;74.0;1.0276616222479978e-27;1.0;2
321.7193;74.25;2.080506214262266e-27;1.0;2
322.98787;74.5;4.1912324327062536e-27;1.0;2
324.25798;74.75;8.416583876572236e-27;1.0;2
325.52625;75.0;1.681690898582829e-26;1.0;2
326.7946;75.25;3.3468127726720055e-26;1.0;2
328.06304;75.5;6.634276893082486e-26;1.0;2
329.33185;75.75;1.3100785893578793e-25;1.0;2
330.59915;76.0;2.5745847127456114e-25;1.0;2
331.86755;76.25;5.042294729515106e-25;1.0;2
333.13933;76.5;9.853169763729724e-25;1.0;2
334.40904;76.75;1.9155826182397765e-24;1.0;2
335.67245;77.0;3.697076006116333e-24;1.0;2
336.93544;77.25;7.105444849641042e-24;1.0;2
338.20055;77.5;1.3616537630735675e-23;1.0;2
339.46693;77.75;2.6006857026298915e-23;1.0;2
340.73428;78.0;4.949754122261665e-23;1.0;2
342.00115;78.25;9.380655179487262e-23;1.0;2
343.26709;78.5;1.76986764650912e-22;1.0;2
344.53291;78.75;3.3257151715500914e-22;1.0;2
345.80069;79.0;6.23034810570325e-22;1.0;2
347.06785;79.25;1.1621575315466312e-21;1.0;2
348.3319;79.5;2.15585110687351e-21;1.0;2
349.59639;79.75;3.984123076200715e-21;1.0;2
350.86188;80.0;7.33706061132746e-21;1.0;2
352.1271;80.25;1.3456100098095008e-20;1.0;2
353.39172;80.5;2.457294126601365e-20;1.0;2
354.65781;80.75;4.4726222176857584e-20;1.0;2
355.92307;81.0;8.10514154590145e-20;1.0;2
357.18959;81.25;1.4637871111597745e-19;1.0;2
358.45673;81.5;2.633786492353896e-19;1.0;2
359.7225;81.75;4.717038923731745e-19;1.0;2
360.98529;82.0;8.402947183538258e-19;1.0;2
362.2481;82.25;1.4909699988653282e-18;1.0;2
363.51337;82.5;2.6378941571339123e-18;1.0;2
364.77634;82.75;4.643703666051192e-18;1.0;2
366.03935;83.0;8.142354373752016e-18;1.0;2
367.30312;83.25;1.422496674623569e-17;1.0;2
368.56488;83.5;2.4730890551379014e-17;1.0;2
369.82594;83.75;4.2812483444270795e-17;1.0;2
371.08644;84.0;7.380270829265396e-17;1.0;2
372.3491;84.25;1.2683889483592747e-16;1.0;2
373.6113;84.5;2.1707978753580522e-16;1.0;2
374.87039;84.75;3.6956469992114233e-16;1.0;2
376.13427;85.0;6.279312682875367e-16;1.0;2
377.3972;85.25;1.0622599885757803e-15;1.0;2
378.65996;85.5;1.789739966186689e-15;1.0;2
379.92084;85.75;3.0011441430952004e-15;1.0;2
381.17904;86.0;5.007125640593812e-15;1.0;2
382.43822;86.25;8.324247373818626e-15;1.0;2
383.69957;86.5;1.3796168715619216e-14;1.0;2
384.95855;86.75;2.2753055005930527e-14;1.0;2
386.2178;87.0;3.7380797696854634e-14;1.0;2
387.47842;87.25;6.120262137433829e-14;1.0;2
388.73801;87.5;9.97690294083341e-14;1.0;2
389.99809;87.75;1.6202534070067244e-13;1.0;2
391.25439;88.0;2.61712662073148e-13;1.0;2
392.51012;88.25;4.20980616928843e-13;1.0;2
393.77304;88.5;6.763277509565634e-13;1.0;2
395.0354;88.75;1.0820142447982545e-12;1.0;2
396.29712;89.0;1.7237685095731066e-12;1.0;2
397.55643;89.25;2.732861582749605e-12;1.0;2
398.81709;89.5;4.3176635444200395e-12;1.0;2
400.07888;89.75;6.797241160855283e-12;1.0;2
401.33978;90.0;1.065499566481708e-11;1.0;2
402.59868;90.25;1.6624349470275843e-11;1.0;2
403.85839;90.5;2.584285484069263e-11;1.0;2
405.11936;90.75;4.0031785778106125e-11;1.0;2
406.37907;91.0;6.173880950180919e-11;1.0;2
407.63825;91.25;9.482286014806617e-11;1.0;2
408.90137;91.5;1.452526015102255e-10;1.0;2
410.15997;91.75;2.2128478727538504e-10;1.0;2
411.41797;92.0;3.3571897448720927e-10;1.0;2
412.67616;92.25;5.073543945939405e-10;1.0;2
413.93518;92.5;7.639189953001297e-10;1.0;2
415.19164;92.75;1.144744349045659e-9;1.0;2
416.4495;93.0;1.7094288539303208e-9;1.0;2
417.70611;93.25;2.541602874929778e-9;1.0;2
418.9638;93.5;3.7652883608750695e-9;1.0;2
420.22125;93.75;5.555738704527265e-9;1.0;2
421.47783;94.0;8.163117163477583e-9;1.0;2
422.7334;94.25;1.1943348869784475e-8;1.0;2
423.98984;94.5;1.741004232962479e-8;1.0;2
425.24798;94.75;2.5291816706031307e-8;1.0;2
426.50623;95.0;3.659805911260851e-8;1.0;2
427.76242;95.25;5.271826844103427e-8;1.0;2
429.01907;95.5;7.565027531533993e-8;1.0;2
430.27473;95.75;1.0810014627923609e-7;1.0;2
431.53449;96.0;1.5403891932702139e-7;1.0;2
432.79547;96.25;2.1870592434110185e-7;1.0;2
434.05343;96.5;3.090354872900629e-7;1.0;2
435.31265;96.75;4.3509925381413457e-7;1.0;2
436.57329;97.0;6.103991124806893e-7;1.0;2
437.83529;97.25;8.532421896093848e-7;1.0;2
439.09275;97.5;1.1865610916504057e-6;1.0;2
440.3477;97.75;1.6425283311160157e-6;1.0;2
441.60436;98.0;2.265776881035721e-6;1.0;2
442.85881;98.25;3.1114881344642525e-6;1.0;2
444.11734;98.5;4.2604235459440615e-6;1.0;2
445.37682;98.75;5.811942312770106e-6;1.0;2
446.63769;99.0;7.899798766112684e-6;1.0;2
447.8979;99.25;1.0693472624906761e-5;1.0;2
449.15915;99.5;1.4421356438999059e-5;1.0;2
450.41896;99.75;1.936526737425735e-5;1.0;2
451.67637;100.0;2.5886970880113856e-5;1.0;2
452.93349;100.25;3.446643452017059e-5;1.0;2
454.18906;100.5;4.5692827069313334e-5;1.0;2
455.4418;100.75;6.030042209072541e-5;1.0;2
456.69625;101.0;7.929616984473278e-5;1.0;2
457.9502;101.25;0.00010385600482566015;1.0;2
459.20187;101.5;0.0001354247008073369;1.0;2
460.45538;101.75;0.00017596704310812348;1.0;2
461.71293;102.0;0.00022793949601954407;1.0;2
462.96792;102.25;0.00029394749136504823;1.0;2
464.22181;102.5;0.0003775007555111827;1.0;2
465.4741;102.75;0.0004827540936308482;1.0;2
466.72711;103.0;0.0006150265226649126;1.0;2
467.97989;103.25;0.0007804421747922485;1.0;2
469.23256;103.5;0.0009864548751923686;1.0;2
470.48607;103.75;0.0012421641513441844;1.0;2
471.73886;104.0;0.0015578341233162842;1.0;2
472.99183;104.25;0.0019461469769707024;1.0;2
474.24319;104.5;0.0024210685882979123;1.0;2
475.4947;104.75;0.0030002119318863316;1.0;2
476.74682;105.0;0.0037037600887339646;1.0;2
477.9978;105.25;0.0045535807455135795;1.0;2
479.24884;105.5;0.005576616375999292;1.0;2
480.50127;105.75;0.006804350124597796;1.0;2
481.75305;106.0;0.008269103486148363;1.0;2
483.00552;106.25;0.010010981316571564;1.0;2
484.25633;106.5;0.012069451445032079;1.0;2
485.50699;106.75;0.014494151374107235;1.0;2
486.76037;107.0;0.01734481411686442;1.0;2
488.01307;107.25;0.0206729485656599;1.0;2
489.26592;107.5;0.024543850940788148;1.0;2
490.51994;107.75;0.029030097077714548;1.0;2
491.77211;108.0;0.03419365962154151;1.0;2
493.02381;108.25;0.040115949337508804;1.0;2
494.27758;108.5;0.046892185063990253;1.0;2
495.53053;108.75;0.0545930027129643;1.0;2
496.78162;109.0;0.06329614424464888;1.0;2
498.03446;109.25;0.07311506638375058;1.0;2
499.28728;109.5;0.08412669865379714;1.0;2
500.54115;109.75;0.09642909605992715;1.0;2
501.7957;110.0;0.11010539721157887;1.0;2
503.04837;110.25;0.12520460200496336;1.0;2
504.30081;110.5;0.14181460589950118;1.0;2
505.55352;110.75;0.160004477414148;1.0;2
506.80422;111.0;0.17978852248307464;1.0;2
508.05466;111.25;0.20122683971224087;1.0;2
509.30698;111.5;0.22438013119459768;1.0;2
510.56153;111.75;0.24926556368432073;1.0;2
511.79767;112.0;0.2754234400184463;1.0;2
513.03393;112.25;0.30317043403997096;1.0;2
514.31439;112.5;0.3335157249878371;1.0;2
515.60267;112.75;0.3655989426574661;1.0;2
516.89114;113.0;0.3991165152976586;1.0;2
518.17694;113.25;0.43383167107042636;1.0;2
519.45943;113.5;0.4695307802705488;1.0;2
520.74009;113.75;0.506032601746255;1.0;2
522.02135;114.0;0.5431612775856771;1.0;2
523.31841;114.25;0.5810927707847223;1.0;2
524.65846;114.5;0.6203234481162562;1.0;2
526.02518;114.75;0.6600095906146555;1.0;2
527.4373;115.0;0.7002446343614487;1.0;2
528.91427;115.25;0.7409970165998149;1.0;2
530.34023;115.5;0.7785576300113316;1.0;2
531.69136;115.75;0.8120900311488982;1.0;2
532.99981;116.0;0.8422726801319149;1.0;2
534.27673;116.25;0.8692201377093506;1.0;2
535.53155;116.5;0.8929929281848037;1.0;2
536.76971;116.75;0.9135607786942523;1.0;2
537.99608;117.0;0.9308813218912341;1.0;2
539.21808;117.25;0.944931390444822;1.0;2
540.43685;117.5;0.9556007977161836;1.0;2
541.65391;117.75;0.9628061916581224;1.0;2
542.87079;118.0;0.9664852546939986;1.0;2
544.08577;118.25;0.9666012464335455;1.0;2
545.2994;118.5;0.9631671796087957;1.0;2
546.51408;118.75;0.9562154181168236;1.0;2
547.73081;119.0;0.9458033231362494;1.0;2
548.94731;119.25;0.9320565595540169;1.0;2
550.16303;119.5;0.9151344605264283;1.0;2
551.38091;119.75;0.8951726165371552;1.0;2
552.60092;120.0;0.8723678338106262;1.0;2
553.823;120.25;0.8469459459539198;1.0;2
555.04616;120.5;0.8191795162064636;1.0;2
556.2706;120.75;0.7893375326700394;1.0;2
557.49705;121.0;0.7576882315014313;1.0;2
558.72281;121.25;0.7246010221690988;1.0;2
559.94718;121.5;0.690403802943642;1.0;2
561.17195;121.75;0.6553518298737964;1.0;2
562.39775;122.0;0.6197242324670982;1.0;2
563.62401;122.25;0.5838259291864346;1.0;2
564.8499;122.5;0.547957127696542;1.0;2
566.07719;122.75;0.5123258494978249;1.0;2
567.30459;123.0;0.47721064617330144;1.0;2
568.53556;123.25;0.44273501130371096;1.0;2
569.76588;123.5;0.40921665722137357;1.0;2
570.99541;123.75;0.37682976910418625;1.0;2
572.22268;124.0;0.345755006232294;1.0;2
573.45063;124.25;0.3160361332813016;1.0;2
574.68457;124.5;0.2876523118947654;1.0;2
575.91688;124.75;0.2608588126006705;1.0;2
577.14862;125.0;0.23567719325001568;1.0;2
578.38872;125.25;0.2119672309317458;1.0;2
579.63101;125.5;0.18987460826406008;1.0;2
580.8682;125.75;0.16951121188403992;1.0;2
582.1069;126.0;0.15073265425299992;1.0;2
583.34579;126.25;0.1335194575192478;1.0;2
584.58099;126.5;0.11786423493387573;1.0;2
585.81596;126.75;0.10365158727481845;1.0;2
587.05229;127.0;0.09079296233550757;1.0;2
588.2876;127.25;0.07923567866046972;1.0;2
589.52354;127.5;0.06888165079715641;1.0;2
590.7589;127.75;0.0596567954134552;1.0;2
591.99843;128.0;0.05144493045265759;1.0;2
593.23967;128.25;0.044184234890824396;1.0;2
594.48051;128.5;0.03780453179058406;1.0;2
595.72253;128.75;0.03221694454020109;1.0;2
596.96414;129.0;0.027351185939344567;1.0;2
598.20708;129.25;0.023126919631717393;1.0;2
599.45067;129.5;0.019478032931868075;1.0;2
600.69309;129.75;0.016344372978901026;1.0;2
601.93552;130.0;0.0136620947117183;1.0;2
603.17808;130.25;0.011375863592761108;1.0;2
604.42145;130.5;0.009434613030037124;1.0;2
605.66623;130.75;0.007792785770473364;1.0;2
606.90861;131.0;0.006414258451755256;1.0;2
608.15011;131.25;0.005260032602362145;1.0;2
609.39333;131.5;0.004295725750411519;1.0;2
610.63595;131.75;0.003495044056967216;1.0;2
611.87783;132.0;0.0028330194694758475;1.0;2
613.12313;132.25;0.0022862111246286926;1.0;2
614.36584;132.5;0.0018386572334354232;1.0;2
615.6071;132.75;0.0014734121727813729;1.0;2
616.8482;133.0;0.0011762240857565523;1.0;2
618.08904;133.25;0.0009354206424327864;1.0;2
619.3303;133.5;0.0007410031529183217;1.0;2
620.57247;133.75;0.0005846376201717958;1.0;2
621.81521;134.0;0.00045944363604059397;1.0;2
623.05379;134.25;0.0003599664918621498;1.0;2
624.29356;134.5;0.00028088239545848094;1.0;2
625.534;134.75;0.00021830365829635922;1.0;2
626.77557;135.0;0.00016897689712282293;1.0;2
628.01476;135.25;0.00013035883150061471;1.0;2
629.25352;135.5;0.00010019100615928539;1.0;2
630.49168;135.75;7.672023607716175e-5;1.0;2
631.72643;136.0;5.856729715616682e-5;1.0;2
632.96171;136.25;4.453445379229925e-5;1.0;2
634.19639;136.5;3.373974032458511e-5;1.0;2
635.43054;136.75;2.546756557368472e-5;1.0;2
636.6665;137.0;1.9142517013868384e-5;1.0;2
637.90129;137.25;1.4337526138063312e-5;1.0;2
639.13785;137.5;1.0693328260785208e-5;1.0;2
640.37426;137.75;7.945286601691282e-6;1.0;2
641.61084;138.0;5.8807240513568384e-6;1.0;2
642.84821;138.25;4.3352000973388295e-6;1.0;2
644.08657;138.5;3.182875288426434e-6;1.0;2
645.32256;138.75;2.329319665993218e-6;1.0;2
646.55795;139.0;1.6984366811486503e-6;1.0;2
647.79259;139.25;1.2339563374168629e-6;1.0;2
649.02743;139.5;8.930478569218337e-7;1.0;2
650.26134;139.75;6.440271088933218e-7;1.0;2
651.49313;140.0;4.6294678967387315e-7;1.0;2
652.72526;140.25;3.314917744395196e-7;1.0;2
653.95775;140.5;2.3644243863038224e-7;1.0;2
655.18763;140.75;1.6813078038846936e-7;1.0;2
656.4166;141.0;1.1913531446113288e-7;1.0;2
657.64601;141.25;8.408952313566895e-8;1.0;2
658.87412;141.5;5.915169647535263e-8;1.0;2
660.10143;141.75;4.146278372454954e-8;1.0;2
661.33029;142.0;2.894134317154535e-8;1.0;2
662.55916;142.25;2.0125210965571857e-8;1.0;2
663.78665;142.5;1.3947775083325764e-8;1.0;2
665.017;142.75;9.621863133030423e-9;1.0;2
666.24737;143.0;6.612559660969521e-9;1.0;2
667.4744;143.25;4.53197693139726e-9;1.0;2
668.70292;143.5;3.0929382645588914e-9;1.0;2
669.93097;143.75;2.103211536321523e-9;1.0;2
671.15414;144.0;1.427036014869362e-9;1.0;2
672.37582;144.25;9.651015612432312e-10;1.0;2
673.59741;144.5;6.502879301609882e-10;1.0;2
674.8184;144.75;4.3662230215968395e-10;1.0;2
676.03891;145.0;2.92118341308306e-10;1.0;2
677.25819;145.25;1.9479377662053367e-10;1.0;2
678.47688;145.5;1.2943922554057435e-10;1.0;2
679.69699;145.75;8.565187933638591e-11;1.0;2
680.91548;146.0;5.649828416183118e-11;1.0;2
682.13134;146.25;3.71637212545956e-11;1.0;2
683.34619;146.5;2.436427652642966e-11;1.0;2
684.55985;146.75;1.5920978331258132e-11;1.0;2
685.77544;147.0;1.0358369424446676e-11;1.0;2
686.98574;147.25;6.727192558954872e-12;1.0;2
688.19631;147.5;4.352571110808277e-12;1.0;2
689.40668;147.75;2.806084333818646e-12;1.0;2
690.61771;148.0;1.8020300415721711e-12;1.0;2
691.83061;148.25;1.1522126496085946e-12;1.0;2
693.04255;148.5;7.342838013415307e-13;1.0;2
694.25602;148.75;4.659644844961182e-13;1.0;2
695.47319;149.0;2.941952909285235e-13;1.0;2
696.69398;149.25;1.8480396590684508e-13;1.0;2
697.91586;149.5;1.1560820452978557e-13;1.0;2
699.14164;149.75;7.194314083535706e-14;1.0;2
700.37065;150.0;4.454632556161163e-14;1.0;2
701.60075;150.25;2.746692187516992e-14;1.0;2
702.83051;150.5;1.6874322282954366e-14;1.0;2
704.06034;150.75;1.0327398295858513e-14;1.0;2
705.29073;151.0;6.295315998769579e-15;1.0;2
706.52578;151.25;3.8157451107826406e-15;1.0;2
707.76142;151.5;2.303469188208588e-15;1.0;2
708.99947;151.75;1.3838779726186327e-15;1.0;2
710.23597;152.0;8.287653604244819e-16;1.0;2
711.47132;152.25;4.946718402674596e-16;1.0;2
712.7091;152.5;2.9383433344080946e-16;1.0;2
713.94498;152.75;1.7401148930928246e-16;1.0;2
715.18051;153.0;1.0267447958350189e-16;1.0;2
716.41598;153.25;6.035362295388929e-17;1.0;2
717.64937;153.5;3.537382468442359e-17;1.0;2
718.88539;153.75;2.063057805979823e-17;1.0;2
720.12085;154.0;1.1989240833386524e-17;1.0;2
721.3571;154.25;6.938488059568735e-18;1.0;2
722.59216;154.5;4.002322783227181e-18;1.0;2
723.82674;154.75;2.300379398965786e-18;1.0;2
725.06143;155.0;1.317081725220996e-18;1.0;2
726.29598;155.25;7.512785201199917e-19;1.0;2
727.53204;155.5;4.2661449110249236e-19;1.0;2
728.76945;155.75;2.411807724373435e-19;1.0;2
730.00617;156.0;1.3587176832660042e-19;1.0;2
731.24206;156.25;7.628277959752866e-20;1.0;2
732.47824;156.5;4.265877881504752e-20;1.0;2
733.71248;156.75;2.3786668426997737e-20;1.0;2
734.95014;157.0;1.3191600406673324e-20;1.0;2
736.18665;157.25;7.291902658620737e-21;1.0;2
737.42311;157.5;4.0154768300904184e-21;1.0;2
738.66134;157.75;2.2009056551650875e-21;1.0;2
739.89823;158.0;1.2025102442244828e-21;1.0;2
741.13524;158.25;6.544730836808852e-22;1.0;2
742.37096;158.5;3.5506996615125356e-22;1.0;2
743.60685;158.75;1.9188618242376051e-22;1.0;2
744.84184;159.0;1.0335082409720617e-22;1.0;2
746.0747;159.25;5.551347193989091e-23;1.0;2
747.30754;159.5;2.970567340563712e-23;1.0;2
748.54211;159.75;1.582151530224191e-23;1.0;2
749.77401;160.0;8.406232038728557e-24;1.0;2
751.00673;160.25;4.447591851231574e-24;1.0;2
752.24085;160.5;2.3425248005527715e-24;1.0;2
753.47352;160.75;1.2300486896127857e-24;1.0;2
754.70893;161.0;6.425186033997127e-25;1.0;2
755.94445;161.25;3.343251905674709e-25;1.0;2
757.17855;161.5;1.734308909411696e-25;1.0;2
758.41213;161.75;8.965072151385923e-26;1.0;2
759.64654;162.0;4.6146297601142857e-26;1.0;2
760.88041;162.25;2.366983282605328e-26;1.0;2
762.11627;162.5;1.20817918245321e-26;1.0;2
763.35118;162.75;6.1466437217840936e-27;1.0;2
764.58722;163.0;3.1132970908008613e-27;1.0;2
765.82332;163.25;1.5708411350134383e-27;1.0;2
767.05869;163.5;7.898858926319782e-28;1.0;2
768.29501;163.75;3.95467111730906e-28;1.0;2
769.53183;164.0;1.9718630763625388e-28;1.0;2
770.76952;164.25;9.7897214598441e-29;1.0;2
772.00806;164.5;4.839411650811671e-29;1.0;2
773.24657;164.75;2.383192899658455e-29;1.0;2
774.48443;165.0;1.1695683256413132e-29;1.0;2
775.72237;165.25;5.717558468045679e-30;1.0;2
776.96229;165.5;2.781205339619464e-30;1.0;2
778.1998;165.75;1.349590142557115e-30;1.0;2
779.43603;166.0;6.528867009649461e-31;1.0;2
780.67127;166.25;3.1482659583235964e-31;1.0;2
781.90496;166.5;1.5137403220835181e-31;1.0;2
783.13976;166.75;7.245909582834027e-32;1.0;2
784.3755;167.0;3.4533129699915807e-32;1.0;2
785.60911;167.25;1.641657138782894e-32;1.0;2
786.84159;167.5;7.779957348921802e-33;1.0;2
788.07654;167.75;3.6675010340648056e-33;1.0;2
789.31232;168.0;1.7214271649396474e-33;1.0;2
790.54753;168.25;8.052005221468233e-34;1.0;2
791.78212;168.5;3.753463354160629e-34;1.0;2
793.01725;168.75;1.7424557750197619e-34;1.0;2
794.25524;169.0;8.043776030430831e-35;1.0;2
795.49293;169.25;3.699802437841524e-35;1.0;2
796.72949;169.5;1.69647130331871e-35;1.0;2
797.96624;169.75;7.748262562846686e-36;1.0;2
799.20028;170.0;3.531466460026773e-36;1.0;2
800.43547;170.25;1.6022656263569332e-36;1.0;2
801.67162;170.5;7.2375433112261634e-37;1.0;2
802.90479;170.75;3.2630911292757514e-37;1.0;2
804.14132;171.0;1.4624100609058344e-37;1.0;2
805.37873;171.25;6.525317116788516e-38;1.0;2
806.61295;171.5;2.9065911507489703e-38;1.0;2
807.84551;171.75;1.2911910053276723e-38;1.0;2
809.07993;172.0;5.707086764347425e-39;1.0;2
810.31169;172.25;2.5174208777996194e-39;1.0;2
811.54371;172.5;1.1060549900716749e-39;1.0;2
812.77867;172.75;4.831631018428439e-40;1.0;2
814.01246;173.0;2.1042650546912075e-40;1.0;2
815.24484;173.25;9.138442084000412e-41;1.0;2
816.47487;173.5;3.9599777620249047e-41;1.0;2
817.70859;173.75;1.7052031800121717e-41;1.0;2
818.94354;174.0;7.308732824874806e-42;1.0;2
820.17685;174.25;3.1242551807293566e-42;1.0;2
821.40964;174.5;1.3309401286100715e-42;1.0;2
822.64283;174.75;5.646792496847837e-43;1.0;2
823.87678;175.0;2.385422987231278e-43;1.0;2
825.11109;175.25;1.0036176693326873e-43;1.0;2
826.34589;175.5;4.205031157534003e-44;1.0;2
827.57988;175.75;1.7561699761120375e-44;1.0;2
828.81525;176.0;7.299383164705576e-45;1.0;2
830.05052;176.25;3.022611081262056e-45;1.0;2
831.28266;176.5;1.2496850779203275e-45;1.0;2
832.51802;176.75;5.135279457850955e-46;1.0;2
833.75179;177.0;2.1046183193192325e-46;1.0;2
834.98725;177.25;8.582193245119522e-47;1.0;2
836.22185;177.5;3.488520916686551e-47;1.0;2
837.45499;177.75;1.414155378503252e-47;1.0;2
838.69067;178.0;5.700218427058501e-48;1.0;2
839.92695;178.25;2.2879032453693953e-48;1.0;2
841.16239;178.5;9.153725085872873e-49;1.0;2
842.39641;178.75;3.6522747693765364e-49;1.0;2
843.63011;179.0;1.4520520479929285e-49;1.0;2
844.86589;179.25;5.742106929991782e-50;1.0;2
846.10147;179.5;2.2624047781784486e-50;1.0;2
847.33569;179.75;8.889189732808604e-51;1.0;2
848.56946;180.0;3.4805780549180885e-51;1.0;2
849.80118;180.25;1.3597874062700966e-51;1.0;2
851.03426;180.5;5.286794488516486e-52;1.0;2
852.2652;180.75;2.0510758702733986e-52;1.0;2
853.49962;181.0;7.906036013539197e-53;1.0;2
854.7352;181.25;3.033139840713281e-53;1.0;2
855.96932;181.5;1.1605544373707036e-53;1.0;2
857.20286;181.75;4.42572703717363e-54;1.0;2
858.43773;182.0;1.679577206275237e-54;1.0;2
859.67186;182.25;6.35353946120763e-55;1.0;2
860.90436;182.5;2.3974034123728715e-55;1.0;2
862.13858;182.75;8.999646924114327e-56;1.0;2
863.37203;183.0;3.367637581719089e-56;1.0;2
864.60703;183.25;1.2538229757271849e-56;1.0;2
865.84215;183.5;4.6499853845779004e-57;1.0;2
867.07611;183.75;1.7195704193956525e-57;1.0;2
868.31209;184.0;6.3245008406018716e-58;1.0;2
869.54783;184.25;2.31772108594704e-58;1.0;2
870.78276;184.5;8.46696805548846e-59;1.0;2
872.0177;184.75;3.0813264944648794e-59;1.0;2
873.2523;185.0;1.1174179450542532e-59;1.0;2
874.48665;185.25;4.0376694586529507e-60;1.0;2
875.72051;185.5;1.4540204800945265e-60;1.0;2
876.95495;185.75;5.213748636777913e-61;1.0;2
878.1884;186.0;1.8639608325792325e-61;1.0;2
879.42137;186.25;6.641234986555758e-62;1.0;2
880.65304;186.5;2.3598691580295376e-62;1.0;2
881.88662;186.75;8.340299736522914e-63;1.0;2
883.12136;187.0;2.933583972156889e-63;1.0;2
884.35346;187.25;1.0302391256727703e-63;1.0;2
885.58682;187.5;3.6005135985685864e-64;1.0;2
886.82156;187.75;1.2520684018001616e-64;1.0;2
888.055;188.0;4.342345394571589e-65;1.0;2
889.28855;188.25;1.5001339326189916e-65;1.0;2
890.52117;188.5;5.16696926388463e-66;1.0;2
891.75585;188.75;1.7697697710421077e-66;1.0;2
892.98619;189.0;6.06162805095466e-67;1.0;2
894.21612;189.25;2.0690765499120185e-67;1.0;2
895.45021;189.5;7.010299457641623e-68;1.0;2
896.68198;189.75;2.3710118978815563e-68;1.0;2
897.91234;190.0;7.998852804305867e-69;1.0;2
899.14484;190.25;2.683214648543963e-69;1.0;2
900.3779;190.5;8.962302081362223e-70;1.0;2
901.61041;190.75;2.983656878380706e-70;1.0;2
902.84523;191.0;9.87486950181385e-71;1.0;2
904.0798;191.25;3.256555485940265e-71;1.0;2
905.31537;191.5;1.0689094793892147e-71;1.0;2
906.55047;191.75;3.496658779967347e-72;1.0;2
