#EXPORTTYPE:DATA SINGLE
#FILE:00592013__Al2O3_900_5_N2_20_air_20.ngb-ds1
#FTYPE:ANSI
#IDENTITY:005920
#DECIMAL:POINT
#SEPARATOR:SEMICOLON
#MTYPE:DSC
#PROJECT:
#DATE/TIME:21.07.2025 08:33
#CORR. FILE:005919_bline_Al2O3_900_5_N2_20_air_20.ngb-bs1
#TEMPCAL:TCALZERO.TCX
#SENSITIVITY:SENSZERO.EXX
#LABORATORY: 11
#OPERATOR:
#REMARK:
#SAMPLE:1
#SAMPLE MASS /mg:9.99
#MATERIAL:
#REFERENCE:
#REFERENCE MASS /mg:0
#TYPE OF CRUCIBLE:DSC/TG pan Al2O3
#SAMPLE CRUCIBLE MASS /mg:0
#REFERENCE CRUCIBLE MASS /mg:0
#DSC RANGE /V:5000
#TG RANGE /mg:5000
#TAU-R:---
#CORR. CODE:020
#EXO:+1
#RANGE:35C/00:00/35C/5,0(K/min)/920C/
#SEGMENT:S1-2/2
#SEG. 1:35C/00:15/35C
#SEG. 2:35C/5,0(K/min)/920C

##Temp./C;Time/min;DSC/(uV/mg);Sensit./(uV/mW);Segment
34.17636;0.25;0.0;1.0;1
34.17971;0.5;0.0;1.0;1
34.17888;0.75;0.0;1.0;1
34.17688;1.0;0.0;1.0;1
34.17253;1.25;0.0;1.0;1
34.17059;1.5;0.0;1.0;1
34.16876;1.75;0.0;1.0;1
34.16682;2.0;0.0;1.0;1
34.16441;2.25;0.0;1.0;1
34.16576;2.5;0.0;1.0;1
34.17024;2.75;0.0;1.0;1
34.16623;3.0;0.0;1.0;1
34.16288;3.25;0.0;1.0;1
34.16018;3.5;0.0;1.0;1
34.158;3.75;0.0;1.0;1
34.16165;4.0;0.0;1.0;1
34.16312;4.25;0.0;1.0;1
34.16582;4.5;0.0;1.0;1
34.16759;4.75;0.0;1.0;1
34.16271;5.0;0.0;1.0;1
34.15965;5.25;0.0;1.0;1
34.15641;5.5;0.0;1.0;1
34.15535;5.75;0.0;1.0;1
34.15588;6.0;0.0;1.0;1
34.15641;6.25;0.0;1.0;1
34.15753;6.5;0.0;1.0;1
34.15565;6.75;0.0;1.0;1
34.15471;7.0;0.0;1.0;1
34.15547;7.25;0.0;1.0;1
34.15894;7.5;0.0;1.0;1
34.15988;7.75;0.0;1.0;1
34.157;8.0;0.0;1.0;1
34.15382;8.25;0.0;1.0;1
34.15247;8.5;0.0;1.0;1
34.15324;8.75;0.0;1.0;1
34.15406;9.0;0.0;1.0;1
34.15082;9.25;0.0;1.0;1
34.15171;9.5;0.0;1.0;1
34.15165;9.75;0.0;1.0;1
34.15165;10.0;0.0;1.0;1
34.15094;10.25;0.0;1.0;1
34.14553;10.5;0.0;1.0;1
34.14282;10.75;0.0;1.0;1
34.14235;11.0;0.0;1.0;1
34.13906;11.25;0.0;1.0;1
34.13618;11.5;0.0;1.0;1
34.13253;11.75;0.0;1.0;1
34.12859;12.0;0.0;1.0;1
34.12518;12.25;0.0;1.0;1
34.12371;12.5;0.0;1.0;1
34.123;12.75;0.0;1.0;1
34.12447;13.0;0.0;1.0;1
34.12429;13.25;0.0;1.0;1
34.12471;13.5;0.0;1.0;1
34.12024;13.75;0.0;1.0;1
34.115;14.0;0.0;1.0;1
34.10647;14.25;0.0;1.0;1
34.10235;14.5;0.0;1.0;1
34.10264;14.75;0.0;1.0;1
34.11549;15.0;0.0;1.0;2
34.10516;15.25;0.0;1.0;2
34.13672;15.5;0.0;1.0;2
34.23371;15.75;0.0;1.0;2
34.42622;16.0;0.0;1.0;2
34.72104;16.25;0.0;1.0;2
35.12375;16.5;0.0;1.0;2
35.61708;16.75;0.0;1.0;2
36.1925;17.0;0.0;1.0;2
36.83655;17.25;0.0;1.0;2
37.54164;17.5;0.0;1.0;2
38.29774;17.75;0.0;1.0;2
39.09878;18.0;0.0;1.0;2
39.94421;18.25;0.0;1.0;2
40.82469;18.5;0.0;1.0;2
41.7454;18.75;0.0;1.0;2
42.69183;19.0;0.0;1.0;2
43.66753;19.25;0.0;1.0;2
44.66731;19.5;0.0;1.0;2
45.6928;19.75;0.0;1.0;2
46.74168;20.0;0.0;1.0;2
47.8057;20.25;0.0;1.0;2
48.88834;20.5;0.0;1.0;2
49.98967;20.75;0.0;1.0;2
51.10446;21.0;0.0;1.0;2
52.23305;21.25;0.0;1.0;2
53.37523;21.5;0.0;1.0;2
54.5253;21.75;0.0;1.0;2
55.68474;22.0;0.0;1.0;2
56.85935;22.25;0.0;1.0;2
58.04364;22.5;0.0;1.0;2
59.23476;22.75;0.0;1.0;2
60.43665;23.0;0.0;1.0;2
61.64896;23.25;0.0;1.0;2
62.86358;23.5;0.0;1.0;2
64.0847;23.75;0.0;1.0;2
65.30787;24.0;0.0;1.0;2
66.53528;24.25;0.0;1.0;2
67.76738;24.5;0.0;1.0;2
69.00398;24.75;0.0;1.0;2
70.24448;25.0;0.0;1.0;2
71.48621;25.25;0.0;1.0;2
72.72937;25.5;0.0;1.0;2
73.97395;25.75;0.0;1.0;2
75.22398;26.0;0.0;1.0;2
76.46965;26.25;0.0;1.0;2
77.71669;26.5;0.0;1.0;2
78.96561;26.75;0.0;1.0;2
80.21691;27.0;0.0;1.0;2
81.47146;27.25;0.0;1.0;2
82.72618;27.5;0.0;1.0;2
83.9838;27.75;0.0;1.0;2
85.24469;28.0;0.0;1.0;2
86.50762;28.25;0.0;1.0;2
87.77336;28.5;0.0;1.0;2
89.03755;28.75;0.0;1.0;2
90.30329;29.0;0.0;1.0;2
91.5698;29.25;0.0;1.0;2
92.84121;29.5;0.0;1.0;2
94.11325;29.75;0.0;1.0;2
95.38379;30.0;0.0;1.0;2
96.65528;30.25;0.0;1.0;2
97.92917;30.5;0.0;1.0;2
99.20502;30.75;0.0;1.0;2
100.48187;31.0;0.0;1.0;2
101.76103;31.25;0.0;1.0;2
103.0401;31.5;0.0;1.0;2
104.31801;31.75;0.0;1.0;2
105.59486;32.0;0.0;1.0;2
106.87277;32.25;0.0;1.0;2
108.14964;32.5;0.0;1.0;2
109.42405;32.75;0.0;1.0;2
110.69828;33.0;0.0;1.0;2
111.97273;33.25;0.0;1.0;2
113.24768;33.5;0.0;1.0;2
114.5243;33.75;0.0;1.0;2
115.79992;34.0;0.0;1.0;2
117.07061;34.25;0.0;1.0;2
118.34429;34.5;0.0;1.0;2
119.61531;34.75;0.0;1.0;2
120.88649;35.0;0.0;1.0;2
122.16033;35.25;0.0;1.0;2
123.43437;35.5;0.0;1.0;2
124.70811;35.75;0.0;1.0;2
125.98445;36.0;0.0;1.0;2
127.25882;36.25;0.0;1.0;2
128.53598;36.5;0.0;1.0;2
129.81523;36.75;0.0;1.0;2
131.09562;37.0;0.0;1.0;2
132.37539;37.25;0.0;1.0;2
133.6561;37.5;0.0;1.0;2
134.93464;37.75;0.0;1.0;2
136.21274;38.0;0.0;1.0;2
137.49378;38.25;0.0;1.0;2
138.77313;38.5;0.0;1.0;2
140.05453;38.75;0.0;1.0;2
141.33595;39.0;0.0;1.0;2
142.61859;39.25;0.0;1.0;2
143.90183;39.5;0.0;1.0;2
145.18944;39.75;0.0;1.0;2
146.47718;40.0;0.0;1.0;2
147.76393;40.25;0.0;1.0;2
149.05209;40.5;0.0;1.0;2
150.3408;40.75;0.0;1.0;2
151.62972;41.0;0.0;1.0;2
152.91426;41.25;0.0;1.0;2
154.20148;41.5;0.0;1.0;2
155.49062;41.75;0.0;1.0;2
156.77878;42.0;0.0;1.0;2
158.06561;42.25;0.0;1.0;2
159.35196;42.5;0.0;1.0;2
160.63758;42.75;0.0;1.0;2
161.92341;43.0;0.0;1.0;2
163.2086;43.25;0.0;1.0;2
164.4928;43.5;0.0;1.0;2
165.78154;43.75;0.0;1.0;2
167.06936;44.0;0.0;1.0;2
168.34977;44.25;0.0;1.0;2
169.63009;44.5;0.0;1.0;2
170.91554;44.75;0.0;1.0;2
172.19972;45.0;0.0;1.0;2
173.48406;45.25;0.0;1.0;2
174.77172;45.5;0.0;1.0;2
176.05543;45.75;0.0;1.0;2
177.33935;46.0;0.0;1.0;2
178.6242;46.25;0.0;1.0;2
179.90738;46.5;0.0;1.0;2
181.18829;46.75;0.0;1.0;2
182.47006;47.0;0.0;1.0;2
183.75097;47.25;0.0;1.0;2
185.03425;47.5;0.0;1.0;2
186.31782;47.75;0.0;1.0;2
187.59983;48.0;0.0;1.0;2
188.88373;48.25;0.0;1.0;2
190.16923;48.5;0.0;1.0;2
191.45527;48.75;0.0;1.0;2
192.74072;49.0;0.0;1.0;2
194.02732;49.25;0.0;1.0;2
195.31354;49.5;0.0;1.0;2
196.59608;49.75;0.0;1.0;2
197.87824;50.0;0.0;1.0;2
199.16401;50.25;0.0;1.0;2
200.44764;50.5;0.0;1.0;2
201.73136;50.75;0.0;1.0;2
203.01783;51.0;0.0;1.0;2
204.30347;51.25;0.0;1.0;2
205.58928;51.5;0.0;1.0;2
206.87537;51.75;0.0;1.0;2
208.15991;52.0;0.0;1.0;2
209.44345;52.25;0.0;1.0;2
210.72681;52.5;0.0;1.0;2
212.01088;52.75;0.0;1.0;2
213.2936;53.0;0.0;1.0;2
214.5738;53.25;0.0;1.0;2
215.85693;53.5;0.0;1.0;2
217.1376;53.75;0.0;1.0;2
218.41693;54.0;0.0;1.0;2
219.69612;54.25;0.0;1.0;2
220.97422;54.5;0.0;1.0;2
222.25371;54.75;0.0;1.0;2
223.53235;55.0;0.0;1.0;2
224.81021;55.25;0.0;1.0;2
226.09061;55.5;0.0;1.0;2
227.36843;55.75;0.0;1.0;2
228.64768;56.0;0.0;1.0;2
229.92791;56.25;0.0;1.0;2
231.20642;56.5;0.0;1.0;2
232.48561;56.75;0.0;1.0;2
233.76529;57.0;0.0;1.0;2
235.04474;57.25;0.0;1.0;2
236.32303;57.5;0.0;1.0;2
237.60062;57.75;0.0;1.0;2
238.87774;58.0;0.0;1.0;2
240.15528;58.25;0.0;1.0;2
241.43348;58.5;0.0;1.0;2
242.71028;58.75;0.0;1.0;2
243.98549;59.0;0.0;1.0;2
245.26213;59.25;0.0;1.0;2
246.53866;59.5;0.0;1.0;2
247.81596;59.75;0.0;1.0;2
249.09604;60.0;0.0;1.0;2
250.37415;60.25;0.0;1.0;2
251.65413;60.5;0.0;1.0;2
252.93088;60.75;5.0e-324;1.0;2
254.20527;61.0;1.53e-322;1.0;2
255.48188;61.25;1.361e-320;1.0;2
256.75935;61.5;1.20561e-318;1.0;2
258.03566;61.75;1.04926574e-316;1.0;2
259.31061;62.0;8.96533782e-315;1.0;2
260.5913;62.25;7.70862496837e-313;1.0;2
261.86723;62.5;6.4305744246025e-311;1.0;2
263.14207;62.75;5.271719593665816e-309;1.0;2
264.4204;63.0;4.314623878318651e-307;1.0;2
265.69965;63.25;3.494177250907233e-305;1.0;2
266.97776;63.5;2.7802680756412904e-303;1.0;2
268.25613;63.75;2.1840185903919277e-301;1.0;2
269.53536;64.0;1.6972099374720645e-299;1.0;2
270.812;64.25;1.2895493696435724e-297;1.0;2
272.08608;64.5;9.581725200426018e-296;1.0;2
273.35924;64.75;7.001408330229963e-294;1.0;2
274.63184;65.0;5.037329521361039e-292;1.0;2
275.90614;65.25;3.595658956073124e-290;1.0;2
277.18125;65.5;2.5386786355536715e-288;1.0;2
278.45575;65.75;1.7645247850459177e-286;1.0;2
279.72908;66.0;1.2051514919014123e-284;1.0;2
281.00597;66.25;8.215744821748052e-283;1.0;2
282.28424;66.5;5.549817621996311e-281;1.0;2
283.55969;66.75;3.663830766806186e-279;1.0;2
284.83607;67.0;2.3932070013242476e-277;1.0;2
286.11123;67.25;1.5358823817241684e-275;1.0;2
287.38776;67.5;9.766488359027958e-274;1.0;2
288.66564;67.75;6.152823436807504e-272;1.0;2
289.93998;68.0;3.780035378507374e-270;1.0;2
291.21275;68.25;2.279308066915013e-268;1.0;2
292.48485;68.5;1.352914742289844e-266;1.0;2
293.75679;68.75;7.917988190002288e-265;1.0;2
295.03095;69.0;4.6039322871878774e-263;1.0;2
296.30732;69.25;2.659303711817069e-261;1.0;2
297.58201;69.5;1.5071595599052945e-259;1.0;2
298.8559;69.75;8.40486185789631e-258;1.0;2
300.12904;70.0;4.6127649663753895e-256;1.0;2
301.40185;70.25;2.4947832587232394e-254;1.0;2
302.67501;70.5;1.3325110494145765e-252;1.0;2
303.94703;70.75;6.996147171132188e-251;1.0;2
305.21803;71.0;3.6122224130369533e-249;1.0;2
306.48649;71.25;1.8255498937729854e-247;1.0;2
307.75531;71.5;9.112270912255736e-246;1.0;2
309.02802;71.75;4.5411765070164696e-244;1.0;2
310.29853;72.0;2.2176060176425352e-242;1.0;2
311.56769;72.25;1.0639693458044937e-240;1.0;2
312.83753;72.5;5.0465666269989996e-239;1.0;2
314.10683;72.75;2.3576200906313685e-237;1.0;2
315.37299;73.0;1.0763868207727886e-235;1.0;2
316.64198;73.25;4.889972256431291e-234;1.0;2
317.91197;73.5;2.198220677202933e-232;1.0;2
319.1809;73.75;9.718127328910003e-231;1.0;2
320.44907;74.0;4.229041516953359e-229;1.0;2
321.7193;74.25;1.8267714010062054e-227;1.0;2
322.98787;74.5;7.74670489681754e-226;1.0;2
324.25798;74.75;3.255715503906657e-224;1.0;2
325.52625;75.0;1.3426229835384557e-222;1.0;2
326.7946;75.25;5.463833895280286e-221;1.0;2
328.06304;75.5;2.194260525554771e-219;1.0;2
329.33185;75.75;8.703161026016136e-218;1.0;2
330.59915;76.0;3.390810691110436e-216;1.0;2
331.86755;76.25;1.3075144550714643e-214;1.0;2
333.13933;76.5;5.0225693150857406e-213;1.0;2
334.40904;76.75;1.8920941517482276e-211;1.0;2
335.67245;77.0;6.90723968302193e-210;1.0;2
336.93544;77.25;2.4850157342607555e-208;1.0;2
338.20055;77.5;8.874301156744459e-207;1.0;2
339.46693;77.75;3.137999257777753e-205;1.0;2
340.73428;78.0;1.0977483970197802e-203;1.0;2
342.00115;78.25;3.7836795127451385e-202;1.0;2
343.26709;78.5;1.2833676968599875e-200;1.0;2
344.53291;78.75;4.293382683267863e-199;1.0;2
345.80069;79.0;1.424793961321311e-197;1.0;2
347.06785;79.25;4.6569759445917e-196;1.0;2
348.3319;79.5;1.489036985275169e-194;1.0;2
349.59639;79.75;4.7032834163162835e-193;1.0;2
350.86188;80.0;1.4697555320967295e-191;1.0;2
352.1271;80.25;4.528268014519965e-190;1.0;2
353.39172;80.5;1.3742949307287906e-188;1.0;2
354.65781;80.75;4.131508083760859e-187;1.0;2
355.92307;81.0;1.2227246555371048e-185;1.0;2
357.18959;81.25;3.582344658547024e-184;1.0;2
358.45673;81.5;1.0372189726449706e-182;1.0;2
359.7225;81.75;2.9522121669384964e-181;1.0;2
360.98529;82.0;8.225816941738325e-180;1.0;2
362.2481;82.25;2.261612978062468e-178;1.0;2
363.51337;82.5;6.174887681334479e-177;1.0;2
364.77634;82.75;1.6535113187192492e-175;1.0;2
366.03935;83.0;4.369317374169156e-174;1.0;2
367.30312;83.25;1.1414409046488663e-172;1.0;2
368.56488;83.5;2.9270448827814996e-171;1.0;2
369.82594;83.75;7.393038981161932e-170;1.0;2
371.08644;84.0;1.8399187986013778e-168;1.0;2
372.3491;84.25;4.543156143876785e-167;1.0;2
373.6113;84.5;1.1056018193513886e-165;1.0;2
374.87039;84.75;2.6341233347816047e-164;1.0;2
376.13427;85.0;6.26755562967304e-163;1.0;2
377.3972;85.25;1.4679363122580926e-161;1.0;2
378.65996;85.5;3.390914032199952e-160;1.0;2
379.92084;85.75;7.692977811364404e-159;1.0;2
381.17904;86.0;1.7108484755963663e-157;1.0;2
382.43822;86.25;3.763555675129067e-156;1.0;2
383.69957;86.5;8.212999685265121e-155;1.0;2
384.95855;86.75;1.7583453176030132e-153;1.0;2
386.2178;87.0;3.7171500569955176e-152;1.0;2
387.47842;87.25;7.779752962122477e-151;1.0;2
388.73801;87.5;1.6027082708341847e-149;1.0;2
389.99809;87.75;3.2618602798929e-148;1.0;2
391.25439;88.0;6.492121372873376e-147;1.0;2
392.51012;88.25;1.2734066899348433e-145;1.0;2
393.77304;88.5;2.506969231236251e-144;1.0;2
395.0354;88.75;4.86345288847233e-143;1.0;2
396.29712;89.0;9.295674961617232e-142;1.0;2
397.55643;89.25;1.7433363008742742e-140;1.0;2
398.81709;89.5;3.2363384145823153e-139;1.0;2
400.07888;89.75;5.943752205740279e-138;1.0;2
401.33978;90.0;1.0749203148602875e-136;1.0;2
402.59868;90.25;1.9094739404466332e-135;1.0;2
403.85839;90.5;3.3532844333334357e-134;1.0;2
405.11936;90.75;5.827423272085705e-133;1.0;2
406.37907;91.0;9.964468637370871e-132;1.0;2
407.63825;91.25;1.6793065405195128e-130;1.0;2
408.90137;91.5;2.8173134384382938e-129;1.0;2
410.15997;91.75;4.617118233469525e-128;1.0;2
411.41797;92.0;7.456851774673715e-127;1.0;2
412.67616;92.25;1.1889134736072647e-125;1.0;2
413.93518;92.5;1.8739582490690506e-124;1.0;2
415.19164;92.75;2.8984896317774307e-123;1.0;2
416.4495;93.0;4.43754156766627e-122;1.0;2
417.70611;93.25;6.686124949337467e-121;1.0;2
418.9638;93.5;9.96445118549039e-120;1.0;2
420.22125;93.75;1.4646772549392302e-118;1.0;2
421.47783;94.0;2.1206204947484034e-117;1.0;2
422.7334;94.25;3.023430821361406e-116;1.0;2
423.98984;94.5;4.261692560738789e-115;1.0;2
425.24798;94.75;5.949090955112928e-114;1.0;2
426.50623;95.0;8.196835351974693e-113;1.0;2
427.76242;95.25;1.1097308541432337e-111;1.0;2
429.01907;95.5;1.4840412250190653e-110;1.0;2
430.27473;95.75;1.9544981099448394e-109;1.0;2
431.53449;96.0;2.5615483502451985e-108;1.0;2
432.79547;96.25;3.320905718099856e-107;1.0;2
434.05343;96.5;4.222484124797488e-106;1.0;2
435.31265;96.75;5.311367559210675e-105;1.0;2
436.57329;97.0;6.611390398955665e-104;1.0;2
437.83529;97.25;8.142468253150645e-103;1.0;2
439.09275;97.5;9.806635695391926e-102;1.0;2
440.3477;97.75;1.159786294218544e-100;1.0;2
441.60436;98.0;1.35813532030979e-99;1.0;2
442.85881;98.25;1.5627353272399272e-98;1.0;2
444.11734;98.5;1.788594955617999e-97;1.0;2
445.37682;98.75;2.0237428458655476e-96;1.0;2
446.63769;99.0;2.26551724808569e-95;1.0;2
447.8979;99.25;2.4994103316635466e-94;1.0;2
449.15915;99.5;2.7262759473015397e-93;1.0;2
450.41896;99.75;2.9263508116719068e-92;1.0;2
451.67637;100.0;3.0856615392701646e-91;1.0;2
452.93349;100.25;3.2090073040267427e-90;1.0;2
454.18906;100.5;3.283877429526244e-89;1.0;2
455.4418;100.75;3.299114504330108e-88;1.0;2
456.69625;101.0;3.281263311953757e-87;1.0;2
457.9502;101.25;3.217748855785458e-86;1.0;2
459.20187;101.5;3.101288505001731e-85;1.0;2
460.45538;101.75;2.959736695524317e-84;1.0;2
461.71293;102.0;2.8077859093749023e-83;1.0;2
462.96792;102.25;2.6165954090291764e-82;1.0;2
464.22181;102.5;2.401727280282123e-81;1.0;2
465.4741;102.75;2.169501396393964e-80;1.0;2
466.72711;103.0;1.9365206097537177e-79;1.0;2
467.97989;103.25;1.7052424451325517e-78;1.0;2
469.23256;103.5;1.481647157494812e-77;1.0;2
470.48607;103.75;1.272345862700453e-76;1.0;2
471.73886;104.0;1.0769716884468076e-75;1.0;2
472.99183;104.25;8.99937173748669e-75;1.0;2
474.24319;104.5;7.40153005584146e-74;1.0;2
475.4947;104.75;6.009374981851163e-73;1.0;2
476.74682;105.0;4.820195756495463e-72;1.0;2
477.9978;105.25;3.808618419739243e-71;1.0;2
479.24884;105.5;2.970340104135173e-70;1.0;2
480.50127;105.75;2.291496702572753e-69;1.0;2
481.75305;106.0;1.7428350470216685e-68;1.0;2
483.00552;106.25;1.3096651910384582e-67;1.0;2
484.25633;106.5;9.687114343452884e-67;1.0;2
485.50699;106.75;7.070012969357703e-66;1.0;2
486.76037;107.0;5.114473867138798e-65;1.0;2
488.01307;107.25;3.647468088583083e-64;1.0;2
489.26592;107.5;2.5677973813974257e-63;1.0;2
490.51994;107.75;1.7872681280702594e-62;1.0;2
491.77211;108.0;1.2242039416921857e-61;1.0;2
493.02381;108.25;8.269701051888859e-61;1.0;2
494.27758;108.5;5.53057631681445e-60;1.0;2
495.53053;108.75;3.64573111226501e-59;1.0;2
496.78162;109.0;2.3652175437983787e-58;1.0;2
498.03446;109.25;1.518356583939335e-57;1.0;2
499.28728;109.5;9.619223348279637e-57;1.0;2
500.54115;109.75;6.023480289468292e-56;1.0;2
501.7957;110.0;3.72605507461884e-55;1.0;2
503.04837;110.25;2.2684993243972575e-54;1.0;2
504.30081;110.5;1.3625844531746414e-53;1.0;2
505.55352;110.75;8.080424270685414e-53;1.0;2
506.80422;111.0;4.7158039758557714e-52;1.0;2
508.05466;111.25;2.7152865945933765e-51;1.0;2
509.30698;111.5;1.547048675970956e-50;1.0;2
510.56153;111.75;8.725768719416622e-50;1.0;2
511.79767;112.0;4.736579009524476e-49;1.0;2
513.03393;112.25;2.5387752451234576e-48;1.0;2
514.31439;112.5;1.4255343990487137e-47;1.0;2
515.60267;112.75;7.977629306494443e-47;1.0;2
516.89114;113.0;4.403792681184618e-46;1.0;2
518.17694;113.25;2.3889513357727617e-45;1.0;2
519.45943;113.5;1.272599307776719e-44;1.0;2
520.74009;113.75;6.670439387321424e-44;1.0;2
522.02135;114.0;3.4511938546040723e-43;1.0;2
523.31841;114.25;1.796756582291626e-42;1.0;2
524.65846;114.5;9.73451583131545e-42;1.0;2
526.02518;114.75;5.370307588907659e-41;1.0;2
527.4373;115.0;3.0843717933547885e-40;1.0;2
528.91427;115.25;1.885463074581769e-39;1.0;2
530.34023;115.5;1.064062654411228e-38;1.0;2
531.69136;115.75;5.39803895605075e-38;1.0;2
532.99981;116.0;2.563785089375086e-37;1.0;2
534.27673;116.25;1.1566519681851756e-36;1.0;2
535.53155;116.5;5.01657032187882e-36;1.0;2
536.76971;116.75;2.1063139766457958e-35;1.0;2
537.99608;117.0;8.613806747034246e-35;1.0;2
539.21808;117.25;3.4612455868895368e-34;1.0;2
540.43685;117.5;1.3685141827567056e-33;1.0;2
541.65391;117.75;5.333635197434856e-33;1.0;2
542.87079;118.0;2.0526253926434924e-32;1.0;2
544.08577;118.25;7.78565283863774e-32;1.0;2
545.2994;118.5;2.9124804515412474e-31;1.0;2
546.51408;118.75;1.0773298903416116e-30;1.0;2
547.73081;119.0;3.944565633800263e-30;1.0;2
548.94731;119.25;1.426087374899797e-29;1.0;2
550.16303;119.5;5.08796279229192e-29;1.0;2
551.38091;119.75;1.796880732872737e-28;1.0;2
552.60092;120.0;6.281017948369138e-28;1.0;2
553.823;120.25;2.1728088268045835e-27;1.0;2
555.04616;120.5;7.43080756492772e-27;1.0;2
556.2706;120.75;2.512725540581968e-26;1.0;2
557.49705;121.0;8.407019339205585e-26;1.0;2
558.72281;121.25;2.7756421584375336e-25;1.0;2
559.94718;121.5;9.037057702184453e-25;1.0;2
561.17195;121.75;2.9066244472292464e-24;1.0;2
562.39775;122.0;9.240606393468956e-24;1.0;2
563.62401;122.25;2.902138532293541e-23;1.0;2
564.8499;122.5;8.997149000892214e-23;1.0;2
566.07719;122.75;2.7578038290323943e-22;1.0;2
567.30459;123.0;8.347800542208818e-22;1.0;2
568.53556;123.25;2.503007847134809e-21;1.0;2
569.76588;123.5;7.405924896478358e-21;1.0;2
570.99541;123.75;2.1621181482696542e-20;1.0;2
572.22268;124.0;6.220521109250639e-20;1.0;2
573.45063;124.25;1.768200027578377e-19;1.0;2
574.68457;124.5;4.987815464863317e-19;1.0;2
575.91688;124.75;1.3872448159445022e-18;1.0;2
577.14862;125.0;3.807645883444016e-18;1.0;2
578.38872;125.25;1.0388364940755712e-17;1.0;2
579.63101;125.5;2.8027533025434066e-17;1.0;2
580.8682;125.75;7.434639229595395e-17;1.0;2
582.1069;126.0;1.949217062860987e-16;1.0;2
583.34579;126.25;5.045778716924733e-16;1.0;2
584.58099;126.5;1.2858606895285693e-15;1.0;2
585.81596;126.75;3.2346097310726074e-15;1.0;2
587.05229;127.0;8.041189045642676e-15;1.0;2
588.2876;127.25;1.9720840358148127e-14;1.0;2
589.52354;127.5;4.7770562476685554e-14;1.0;2
590.7589;127.75;1.1419539111234759e-13;1.0;2
591.99843;128.0;2.70284469280844e-13;1.0;2
593.23967;128.25;6.322596534310781e-13;1.0;2
594.48051;128.5;1.4596052773818768e-12;1.0;2
595.72253;128.75;3.3288813443968003e-12;1.0;2
596.96414;129.0;7.492392644784157e-12;1.0;2
598.20708;129.25;1.6660558698621255e-11;1.0;2
599.45067;129.5;3.6584917067563795e-11;1.0;2
600.69309;129.75;7.924313602637278e-11;1.0;2
601.93552;130.0;1.6943182188090782e-10;1.0;2
603.17808;130.25;3.5762920653305675e-10;1.0;2
604.42145;130.5;7.454985625500226e-10;1.0;2
605.66623;130.75;1.5352366052841291e-9;1.0;2
606.90861;131.0;3.116484548462454e-9;1.0;2
608.15011;131.25;6.241863876010201e-9;1.0;2
609.39333;131.5;1.2352341236704222e-8;1.0;2
610.63595;131.75;2.4121768485869485e-8;1.0;2
611.87783;132.0;4.648044168598055e-8;1.0;2
613.12313;132.25;8.856631513698245e-8;1.0;2
614.36584;132.5;1.6635933521629366e-7;1.0;2
615.6071;132.75;3.0823692832744646e-7;1.0;2
616.8482;133.0;5.637289536805693e-7;1.0;2
618.08904;133.25;1.0176206732975336e-6;1.0;2
619.3303;133.5;1.8137227341952049e-6;1.0;2
620.57247;133.75;3.1923853950304375e-6;1.0;2
621.81521;134.0;5.548069756249532e-6;1.0;2
623.05379;134.25;9.500828864005508e-6;1.0;2
624.29356;134.5;1.6069535525882006e-5;1.0;2
625.534;134.75;2.6838550423894617e-5;1.0;2
626.77557;135.0;4.4268935680668156e-5;1.0;2
628.01476;135.25;7.20140849061721e-5;1.0;2
629.25352;135.5;0.00011562872627209273;1.0;2
630.49168;135.75;0.00018324102956014242;1.0;2
631.72643;136.0;0.0002863266202994218;1.0;2
632.96171;136.25;0.00044179495432068326;1.0;2
634.19639;136.5;0.0006728650395303607;1.0;2
635.43054;136.75;0.0010115826093079234;1.0;2
636.6665;137.0;0.0015023392560362721;1.0;2
637.90129;137.25;0.002201960277388974;1.0;2
639.13785;137.5;0.0031879906056843255;1.0;2
640.37426;137.75;0.004556487595923258;1.0;2
641.61084;138.0;0.006429674218840773;1.0;2
642.84821;138.25;0.008959047788068651;1.0;2
644.08657;138.5;0.01232707632929426;1.0;2
645.32256;138.75;0.01673466218247818;1.0;2
646.55795;139.0;0.022425526627924262;1.0;2
647.79259;139.25;0.029664079338887876;1.0;2
649.02743;139.5;0.038741712615383214;1.0;2
650.26134;139.75;0.04994422743464876;1.0;2
651.49313;140.0;0.06354253325546844;1.0;2
652.72526;140.25;0.07982470950092733;1.0;2
653.95775;140.5;0.09901492333091225;1.0;2
655.18763;140.75;0.12121158852987335;1.0;2
656.4166;141.0;0.14649166706906827;1.0;2
657.64601;141.25;0.1748237863723774;1.0;2
658.87412;141.5;0.20597003709177317;1.0;2
660.10143;141.75;0.23958884543586612;1.0;2
661.33029;142.0;0.2752382920181066;1.0;2
662.55916;142.25;0.31220859074818846;1.0;2
663.78665;142.5;0.34964061169201444;1.0;2
665.017;142.75;0.38672285594386785;1.0;2
666.24737;143.0;0.4223362279459881;1.0;2
667.4744;143.25;0.45531840323017736;1.0;2
668.70292;143.5;0.4847428632436731;1.0;2
669.93097;143.75;0.5095616741450969;1.0;2
671.15414;144.0;0.5288459968636156;1.0;2
672.37582;144.25;0.541996134908786;1.0;2
673.59741;144.5;0.5485553394506412;1.0;2
674.8184;144.75;0.5482825471014531;1.0;2
676.03891;145.0;0.5411969076179045;1.0;2
677.25819;145.25;0.527579589821057;1.0;2
678.47688;145.5;0.5079357621302477;1.0;2
679.69699;145.75;0.4829309141741661;1.0;2
680.91548;146.0;0.4534950928337694;1.0;2
682.13134;146.25;0.4206515596639819;1.0;2
683.34619;146.5;0.38540332556390383;1.0;2
684.55985;146.75;0.34879616772180905;1.0;2
685.77544;147.0;0.3117273459393809;1.0;2
686.98574;147.25;0.2753196287728709;1.0;2
688.19631;147.5;0.24018397288646384;1.0;2
689.40668;147.75;0.20697505450499062;1.0;2
690.61771;148.0;0.17616115734105062;1.0;2
691.83061;148.25;0.14805864102782992;1.0;2
693.04255;148.5;0.12293028552774941;1.0;2
694.25602;148.75;0.1007896208741706;1.0;2
695.47319;149.0;0.08156720154872717;1.0;2
696.69398;149.25;0.06515015447526191;1.0;2
697.91586;149.5;0.05137907875653803;1.0;2
699.14164;149.75;0.0399813639695923;1.0;2
700.37065;150.0;0.030700190585779632;1.0;2
701.60075;150.25;0.02327059211605074;1.0;2
702.83051;150.5;0.01741772933740771;1.0;2
704.06034;150.75;0.012872214018118465;1.0;2
705.29073;151.0;0.009391522631839459;1.0;2
706.52578;151.25;0.006756914040331199;1.0;2
707.76142;151.5;0.004798728519771477;1.0;2
708.99947;151.75;0.0033622513432494537;1.0;2
710.23597;152.0;0.0023267446703502054;1.0;2
711.47132;152.25;0.0015901876636285623;1.0;2
712.7091;152.5;0.0010721151677161858;1.0;2
713.94498;152.75;0.0007140411491235836;1.0;2
715.18051;153.0;0.00046955623671007715;1.0;2
716.41598;153.25;0.0003048558993204308;1.0;2
717.64937;153.5;0.00019555340419062753;1.0;2
718.88539;153.75;0.0001237256840633987;1.0;2
720.12085;154.0;7.72995845838624e-5;1.0;2
721.3571;154.25;4.76642202666431e-5;1.0;2
722.59216;154.5;2.902985595103662e-5;1.0;2
723.82674;154.75;1.745909832844226e-5;1.0;2
725.06143;155.0;1.0366215947521985e-5;1.0;2
726.29598;155.25;6.076958181668376e-6;1.0;2
727.53204;155.5;3.514799526118933e-6;1.0;2
728.76945;155.75;2.0057399735914558e-6;1.0;2
730.00617;156.0;1.1303309988073996e-6;1.0;2
731.24206;156.25;6.291179272612606e-7;1.0;2
732.47824;156.5;3.456423415771734e-7;1.0;2
733.71248;156.75;1.8765953525640514e-7;1.0;2
734.95014;157.0;1.0041560415663341e-7;1.0;2
736.18665;157.25;5.3076961694323114e-8;1.0;2
737.42311;157.5;2.7697908457435446e-8;1.0;2
738.66134;157.75;1.4255963230207986e-8;1.0;2
739.89823;158.0;7.248971691348769e-9;1.0;2
741.13524;158.25;3.6387150174924915e-9;1.0;2
742.37096;158.5;1.8045153734665085e-9;1.0;2
743.60685;158.75;8.834088329509985e-10;1.0;2
744.84184;159.0;4.2719384948040664e-10;1.0;2
746.0747;159.25;2.0421379292730646e-10;1.0;2
747.30754;159.5;9.638465378668564e-11;1.0;2
748.54211;159.75;4.48661756636433e-11;1.0;2
749.77401;160.0;2.0654203730867005e-11;1.0;2
751.00673;160.25;9.382835593351162e-12;1.0;2
752.24085;160.5;4.204552712527567e-12;1.0;2
753.47352;160.75;1.861962572144531e-12;1.0;2
754.70893;161.0;8.125992140119755e-13;1.0;2
755.94445;161.25;3.500930554351229e-13;1.0;2
757.17855;161.5;1.4905753834909773e-13;1.0;2
758.41213;161.75;6.268020461171592e-14;1.0;2
759.64654;162.0;2.6007526884175985e-14;1.0;2
760.88041;162.25;1.0658152586983316e-14;1.0;2
762.11627;162.5;4.306008292722712e-15;1.0;2
763.35118;162.75;1.7187280795332215e-15;1.0;2
764.58722;163.0;6.767150294464915e-16;1.0;2
765.82332;163.25;2.6303478855584213e-16;1.0;2
767.05869;163.5;1.0099412112220838e-16;1.0;2
768.29501;163.75;3.8254955637474437e-17;1.0;2
769.53183;164.0;1.4299856220469803e-17;1.0;2
770.76952;164.25;5.273402053391995e-18;1.0;2
772.00806;164.5;1.918495118713637e-18;1.0;2
773.24657;164.75;6.890449733003042e-19;1.0;2
774.48443;165.0;2.4444363018676585e-19;1.0;2
775.72237;165.25;8.560371422531686e-20;1.0;2
776.96229;165.5;2.954444754168505e-20;1.0;2
778.1998;165.75;1.0087120900599099e-20;1.0;2
779.43603;166.0;3.4038114053188914e-21;1.0;2
780.67127;166.25;1.1349463596500665e-21;1.0;2
781.90496;166.5;3.7413657948690347e-22;1.0;2
783.13976;166.75;1.2164487828306714e-22;1.0;2
784.3755;167.0;3.901392432325606e-23;1.0;2
785.60911;167.25;1.2377775103133015e-23;1.0;2
786.84159;167.5;3.8813295756651376e-24;1.0;2
788.07654;167.75;1.1988179313502366e-24;1.0;2
789.31232;168.0;3.6527168514884297e-25;1.0;2
790.54753;168.25;1.099390105606965e-25;1.0;2
791.78212;168.5;3.2688111160363036e-26;1.0;2
793.01725;168.75;9.59037564316682e-27;1.0;2
794.25524;169.0;2.769911511585851e-27;1.0;2
795.49293;169.25;7.900236469035386e-28;1.0;2
796.72949;169.5;2.2270668132644976e-28;1.0;2
797.96624;169.75;6.196760466091366e-29;1.0;2
799.20028;170.0;1.7070814405860545e-29;1.0;2
800.43547;170.25;4.637255421949152e-30;1.0;2
801.67162;170.5;1.2423897142377594e-30;1.0;2
802.90479;170.75;3.296715938130763e-31;1.0;2
804.14132;171.0;8.605324296676188e-32;1.0;2
805.37873;171.25;2.215420818748552e-32;1.0;2
806.61295;171.5;5.650702433946007e-33;1.0;2
807.84551;171.75;1.4256176487276878e-33;1.0;2
809.07993;172.0;3.543632528201528e-34;1.0;2
810.31169;172.25;8.722848747529072e-35;1.0;2
811.54371;172.5;2.119361496248912e-35;1.0;2
812.77867;172.75;5.0667628719539674e-36;1.0;2
814.01246;173.0;1.1975435363034642e-36;1.0;2
815.24484;173.25;2.7991521246044543e-37;1.0;2
816.47487;173.5;6.478030509216736e-38;1.0;2
817.70859;173.75;1.4737056291414444e-38;1.0;2
818.94354;174.0;3.305055591598475e-39;1.0;2
820.17685;174.25;7.332610868662117e-40;1.0;2
821.40964;174.5;1.6072042979527566e-40;1.0;2
822.64283;174.75;3.476361919117613e-41;1.0;2
823.87678;175.0;7.41683118704062e-42;1.0;2
825.11109;175.25;1.5615692198280312e-42;1.0;2
826.34589;175.5;3.2439676554051593e-43;1.0;2
827.57988;175.75;6.660163674806065e-44;1.0;2
828.81525;176.0;1.3476039052591138e-44;1.0;2
830.05052;176.25;2.6923485322793064e-45;1.0;2
831.28266;176.5;5.33248206509251e-46;1.0;2
832.51802;176.75;1.0383218138710775e-46;1.0;2
833.75179;177.0;2.0002983986076628e-47;1.0;2
834.98725;177.25;3.79590805535105e-48;1.0;2
836.22185;177.5;7.119980801221564e-49;1.0;2
837.45499;177.75;1.3211529536459504e-49;1.0;2
838.69067;178.0;2.411894661957767e-50;1.0;2
839.92695;178.25;4.3434307587380425e-51;1.0;2
841.16239;178.5;7.731177295004438e-52;1.0;2
842.39641;178.75;1.3613309071134143e-52;1.0;2
843.63011;179.0;2.367699066191894e-53;1.0;2
844.86589;179.25;4.053632463159264e-54;1.0;2
846.10147;179.5;6.853600011820908e-55;1.0;2
847.33569;179.75;1.146264667654381e-55;1.0;2
848.56946;180.0;1.8940106968706091e-56;1.0;2
849.80118;180.25;3.099147055773229e-57;1.0;2
851.03426;180.5;4.996805105879439e-58;1.0;2
852.2652;180.75;7.979725512154755e-59;1.0;2
853.49962;181.0;1.2516483383220916e-59;1.0;2
854.7352;181.25;1.934889785585563e-60;1.0;2
855.96932;181.5;2.9595863720841926e-61;1.0;2
857.20286;181.75;4.473413212145323e-62;1.0;2
858.43773;182.0;6.661999024260385e-63;1.0;2
859.67186;182.25;9.806409647821619e-64;1.0;2
860.90436;182.5;1.4288001278124116e-64;1.0;2
862.13858;182.75;2.0498144432365637e-65;1.0;2
863.37203;183.0;2.906926640085977e-66;1.0;2
864.60703;183.25;4.060030071673467e-67;1.0;2
865.84215;183.5;5.597301446824377e-68;1.0;2
867.07611;183.75;7.63275381791745e-69;1.0;2
868.31209;184.0;1.0242387077854947e-69;1.0;2
869.54783;184.25;1.3574424614042295e-70;1.0;2
870.78276;184.5;1.7785002396124617e-71;1.0;2
872.0177;184.75;2.3004774893032457e-72;1.0;2
873.2523;185.0;2.9394601555087436e-73;1.0;2
874.48665;185.25;3.7097235201360164e-74;1.0;2
875.72051;185.5;4.626149500815506e-75;1.0;2
876.95495;185.75;5.690065661708993e-76;1.0;2
878.1884;186.0;6.921411201766203e-77;1.0;2
879.42137;186.25;8.319235260164815e-78;1.0;2
880.65304;186.5;9.894810317085652e-79;1.0;2
881.88662;186.75;1.1581180584070583e-79;1.0;2
883.12136;187.0;1.3355655546874395e-80;1.0;2
884.35346;187.25;1.5277124517429864e-81;1.0;2
885.58682;187.5;1.7215150459488516e-82;1.0;2
886.82156;187.75;1.9105691610699478e-83;1.0;2
888.055;188.0;2.0983077208451357e-84;1.0;2
889.28855;188.25;2.2747909357574707e-85;1.0;2
890.52117;188.5;2.438926720679011e-86;1.0;2
891.75585;188.75;2.5720594971304105e-87;1.0;2
892.98619;189.0;2.699401708255745e-88;1.0;2
894.21612;189.25;2.7993878474946526e-89;1.0;2
895.45021;189.5;2.844365791745462e-90;1.0;2
896.68198;189.75;2.8657396049478824e-91;1.0;2
897.91234;190.0;2.8582859512486636e-92;1.0;2
899.14484;190.25;2.803488496460614e-93;1.0;2
900.3779;190.5;2.712005504579052e-94;1.0;2
901.61041;190.75;2.5929499975537828e-95;1.0;2
902.84523;191.0;2.4368675272647606e-96;1.0;2
904.0798;191.25;2.262137884689725e-97;1.0;2
905.31537;191.5;2.069213567972625e-98;1.0;2
906.55047;191.75;1.8703499257007104e-99;1.0;2
